Lenght	Intensity	Error
8.0780710156	0.7074306607	0.4957181811
8.0784080156	0.5782423019	0.4923676848
8.0787335156	0.4063711166	0.495134294
8.0790590156	0.1927087456	0.4952423573
8.0793820156	0.0119369896	0.4951105714
8.0796960156	-0.1235554814	0.4954640567
8.0800195156	-0.1771682352	0.4933950007
8.0803500156	-0.1166209653	0.4933534265
8.0806745156	0.0406052247	0.4936605692
8.0809935156	0.2517398596	0.492104739
8.0813135156	0.4687484205	0.4943019152
8.0816300156	0.6409039497	0.4961036444
8.0819605156	0.7567012906	0.4897419214
8.0822830156	0.7891548276	0.4916918874
8.0826065156	0.7364669442	0.4932176769
8.0829350156	0.5718941092	0.4915365577
8.0832525156	0.3762640357	0.4922887683
8.0835815156	0.1531318724	0.4931893647
8.0839080156	-0.0552556068	0.4939928353
8.0842410156	-0.1747715324	0.4920144975
8.0845680156	-0.1913186908	0.4928405285
8.0848950156	-0.1099218577	0.4939716756
8.0852290156	0.0907410681	0.4923442304
8.0855545156	0.3202872276	0.4918489158
8.0858855156	0.5232598186	0.4923436642
8.0862220156	0.7014753819	0.494418174
8.0865660156	0.7920472026	0.492149502
8.0869165156	0.7974356413	0.4938318431
8.0872550156	0.7090516686	0.4943629801
8.0875910156	0.5315247774	0.4938719273
8.0879210156	0.2969107926	0.4951862097
8.0882550156	0.0759275779	0.495660603
8.0885820156	-0.104725115	0.4930258691
8.0889065156	-0.2153879553	0.4971841276
8.0892330156	-0.1997756809	0.4969677627
8.0895560156	-0.0693871975	0.4938523173
8.0898725156	0.1296927482	0.4971512854
8.0901960156	0.3727639019	0.4986732304
8.0905220156	0.5860073566	0.4967713058
8.0908400156	0.7570537329	0.4977569282
8.0911625156	0.8206673265	0.496206373
8.0914800156	0.7961774468	0.4987878501
8.0917910156	0.6656669974	0.4990976751
8.0921030156	0.458267957	0.497174859
8.0924200156	0.2257471681	0.499145329
8.0927335156	0.0009373298	0.4980858266
8.0930340156	-0.167370379	0.4973293543
8.0933365156	-0.2392118871	0.4985636473
8.0936510156	-0.1717054248	0.4987436235
8.0939715156	-0.0130211134	0.5008506179
8.0942915156	0.2332584709	0.4995943904
8.0946125156	0.4777511358	0.4984672368
8.0949435156	0.6774104238	0.4985345006
8.0952805156	0.810228169	0.4991598725
8.0956170156	0.843393147	0.5033302903
8.0959450156	0.7774608731	0.5008247495
8.0962740156	0.6050984859	0.4994146228
8.0966040156	0.3711243868	0.4988694191
8.0969370156	0.1106003523	0.4995546639
8.0972775156	-0.1026097313	0.5012139678
8.0976135156	-0.241812259	0.5022235513
8.0979520156	-0.2419909984	0.4999968112
8.0982835156	-0.1306002438	0.4939456284
8.0986060156	0.0914976671	0.4976021647
8.0989310156	0.33788535	0.5051444769
8.0992725156	0.5793684125	0.4982449114
8.0996120156	0.7538742423	0.4994942248
8.0999540156	0.8481988311	0.4987791181
8.1002870156	0.8420155644	0.49963516
8.1006175156	0.7251131535	0.5004760623
8.1009480156	0.5254675746	0.5014836788
8.1012815156	0.2758619189	0.5004887581
8.1016220156	0.0099446308	0.4993938506
8.1019635156	-0.185772568	0.5008707047
8.1023095156	-0.2716589868	0.4972790778
8.1026410156	-0.2355471998	0.4969581962
8.1029585156	-0.0820650533	0.4992770255
8.1032795156	0.1646007746	0.4963949621
8.1035920156	0.4256182611	0.4956333935
8.1038995156	0.652534306	0.495046407
8.1042060156	0.8087771535	0.4922416508
8.1045060156	0.8688328862	0.4951749742
8.1048060156	0.8111560941	0.4946471751
8.1051030156	0.6646379828	0.4964623451
8.1054000156	0.4394521713	0.4940669239
8.1056955156	0.1736136675	0.495824188
8.1059945156	-0.079640314	0.4928653836
8.1062925156	-0.2492124289	0.4945792258
8.1066065156	-0.2912203074	0.4961389899
8.1069300156	-0.1933576018	0.4940637648
8.1072535156	-0.0005647916	0.4935748577
8.1075825156	0.2861575484	0.4960410893
8.1079000156	0.5449843407	0.495082885
8.1082125156	0.7461585402	0.4951951206
8.1085425156	0.8562318087	0.4935585558
8.1088620156	0.8721835613	0.4941108823
8.1091850156	0.7609476447	0.4944906235
8.1095125156	0.5679389238	0.4939800799
8.1098380156	0.3309223354	0.4884053469
8.1101740156	-0.0184483416	0.5003113151
8.1104945156	-0.2014167011	0.5079801083
8.1108240156	-0.2688312531	0.4872411191
8.1111620156	-0.2604600489	0.4885529876
8.1114790156	-0.2575470805	0.4959191084
8.1118015156	-0.1768804789	0.4846708775
8.1121395156	0.3192269802	0.4721058607
8.1124710156	0.6618509293	0.5072749257
8.1127945156	0.8175996542	0.494187355
8.1131300156	0.8581923842	0.4822797477
8.1134525156	0.8491639495	0.5023217797
8.1137895156	0.681212008	0.490737468
8.1141340156	0.3553642035	0.4953334033
8.1144605156	0.1358026564	0.5048850775
8.1147900156	-0.1142547131	0.4984378219
8.1151220156	-0.2851212919	0.4969901741
8.1154260156	-0.3233388662	0.5035953522
8.1157300156	-0.2072632462	0.4991980493
8.1160340156	-0.0240692496	0.4993129969
8.1163535156	0.3007157445	0.4996710122
8.1166660156	0.581700325	0.5032117963
8.1169750156	0.7667452097	0.4960433543
8.1172775156	0.8920426369	0.5020168424
8.1175925156	0.8658528924	0.4976056516
8.1178950156	0.7615928054	0.497399956
8.1182055156	0.5445997715	0.5014852881
8.1185125156	0.2753391266	0.4987407327
8.1188220156	-0.000934136	0.4990068376
8.1191340156	-0.2233887911	0.4984068573
8.1194500156	-0.3237894475	0.4985173941
8.1197685156	-0.2852257192	0.5000817776
8.1200860156	-0.0987353548	0.4986847639
8.1204000156	0.1700958014	0.4979509711
8.1207125156	0.4474351406	0.5001835823
8.1210325156	0.6946639419	0.4985444546
8.1213515156	0.8467891812	0.4971878529
8.1216740156	0.9015833139	0.5010504723
8.1220055156	0.8227989674	0.4989391863
8.1223355156	0.6422726512	0.4983232617
8.1226675156	0.3798318207	0.4976636171
8.1229865156	0.1039071158	0.5003364086
8.1233125156	-0.1504123062	0.4995984733
8.1236455156	-0.3144080937	0.5001927614
8.1239590156	-0.3256238401	0.5014188886
8.1242855156	-0.1838131398	0.498675406
8.1246300156	0.0553230569	0.4983183146
8.1249555156	0.3410878778	0.4999254644
8.1252710156	0.602140367	0.4986720085
8.1256120156	0.8052093387	0.4996456802
8.1259600156	0.8934407234	0.4978523552
8.1262995156	0.880381465	0.5005922318
8.1266290156	0.7409378886	0.4997416735
8.1269500156	0.5228686929	0.4992982745
8.1272735156	0.2361354977	0.4987716079
8.1275970156	-0.0344294719	0.5005726814
8.1279200156	-0.2444863468	0.4981215894
8.1282475156	-0.3333133459	0.4997040629
8.1285790156	-0.2793402076	0.5000399351
8.1289120156	-0.0746788755	0.4987727404
8.1292440156	0.1968375742	0.5013523102
8.1295740156	0.4827403128	0.4984577
8.1298900156	0.7228768468	0.5002678037
8.1302070156	0.87556988	0.4998684525
8.1305205156	0.8937515616	0.4960551858
8.1308225156	0.8431397676	0.5095599294
8.1311410156	0.6478860974	0.4904376268
8.1314480156	0.407448113	0.5048907995
8.1317630156	0.0931307226	0.5060483217
8.1320770156	-0.1523623765	0.4973582923
8.1323945156	-0.321719557	0.500138998
8.1327185156	-0.3240212798	0.502109766
8.1330445156	-0.1909016222	0.4975702465
8.1333750156	0.0641146377	0.4977549314
8.1337015156	0.3717982173	0.5010973215
8.1340240156	0.607675612	0.4997599721
8.1343460156	0.8040803671	0.4970985353
8.1346625156	0.9160358906	0.5030834675
8.1349730156	0.942574501	0.4999301136
8.1353150156	0.7429322004	0.4838804007
8.1356120156	0.7127850652	0.4998418987
8.1359570156	0.1444187462	0.5002928376
8.1362920156	-0.1350176185	0.5021210909
8.1366060156	-0.2584812045	0.5017322898
8.1369365156	-0.3496637344	0.4995235205
8.1372775156	-0.2406244427	0.4970524311
8.1376130156	-0.0773008764	0.4917329848
8.1379325156	0.1826944649	0.4985355139
8.1382580156	0.4919997752	0.4987254441
8.1385820156	0.7262591124	0.4930417538
8.1389090156	0.8814138174	0.494341433
8.1392315156	0.920535624	0.4962878227
8.1395385156	0.8365954757	0.4950357676
8.1398485156	0.6515691876	0.4956409931
8.1401620156	0.3648714125	0.4942977726
8.1404730156	0.0725374445	0.4952642918
8.1407860156	-0.1767748445	0.4974384904
8.1411015156	-0.3227004409	0.4934727848
8.1414180156	-0.3317716718	0.4936965108
8.1417275156	-0.190564543	0.4967674017
8.1420440156	0.0545635484	0.4953106046
8.1423590156	0.3462377489	0.4945138395
8.1426685156	0.6125005484	0.4941567481
8.1429740156	0.8185566664	0.4924864769
8.1432770156	0.9174028635	0.4957919717
8.1435870156	0.8913500309	0.4964436591
8.1438925156	0.7494750023	0.4946037233
8.1441935156	0.5185875297	0.4974999428
8.1445005156	0.2246394157	0.4931451678
8.1448025156	-0.0538266078	0.4976999462
8.1451175156	-0.2678604126	0.4970245361
8.1454255156	-0.3496496975	0.4952721894
8.1457275156	-0.2797734141	0.4969003499
8.1460420156	-0.0702809319	0.4981251955
8.1463460156	0.2064550072	0.4960519969
8.1466530156	0.4986164868	0.4959805012
8.1469700156	0.7398476601	0.4974703193
8.1472975156	0.8828941584	0.4973915517
8.1476385156	0.9154843092	0.4946671128
8.1479645156	0.8413066864	0.4981572032
8.1482920156	0.6315433383	0.4978392422
8.1486035156	0.3646345139	0.4993993342
8.1489235156	0.0745746642	0.5004060268
8.1492465156	-0.1845457703	0.5017129779
8.1495790156	-0.3312276006	0.4995375872
8.1499080156	-0.3368996084	0.4994231164
8.1502360156	-0.199459821	0.5012792349
8.1505595156	0.0522643216	0.4994343519
8.1508815156	0.344373256	0.4972084463
8.1511910156	0.6431866288	0.5020160079
8.1515030156	0.7977964878	0.4932046533
8.1518345156	0.9089371562	0.4962753952
8.1521595156	0.9086543322	0.5040801764
8.1524745156	0.889767766	0.4848624468
8.1528150156	0.4614991248	0.4877574146
8.1531355156	0.1569767892	0.5011927485
8.1534510156	-0.0650231391	0.5034093261
8.1537725156	-0.2530323565	0.4958745241
8.1540950156	-0.3478859663	0.4995929301
8.1544085156	-0.2907044291	0.5041672587
8.1547180156	-0.108928211	0.5047243237
8.1550365156	0.1868091375	0.4967932403
8.1553560156	0.4884189665	0.4958175421
8.1556700156	0.7287724018	0.4998226166
8.1559800156	0.8760943413	0.4988316596
8.1562960156	0.9174004793	0.4954696894
8.1566140156	0.835636735	0.49637568
8.1569350156	0.6419650912	0.4995942712
8.1572445156	0.3932544589	0.4979035258
8.1575510156	0.111304082	0.4981235266
8.1578560156	-0.1602589339	0.497536242
8.1581560156	-0.315107286	0.496519655
8.1584575156	-0.3393207788	0.4981890917
8.1587610156	-0.2080170363	0.4977891445
8.1590665156	0.041213993	0.4961890578
8.1593805156	0.3237997591	0.4939968884
8.1596975156	0.5983966589	0.4957545996
8.1600130156	0.8080223799	0.4956136644
8.1603215156	0.9072041512	0.4936824441
8.1606180156	0.8894681931	0.4956110716
8.1609170156	0.756301105	0.4940947592
8.1612265156	0.5305275321	0.4956227839
8.1615505156	0.2256672084	0.4963664412
8.1618620156	-0.0315819383	0.4951388538
8.1621715156	-0.2476765811	0.4954179227
8.1624770156	-0.3428044021	0.4948942661
8.1627770156	-0.2893742621	0.4959484339
8.1630845156	-0.1001856253	0.4962092936
8.1633935156	0.1706825048	0.4960076213
8.1637120156	0.4662640095	0.4966830909
8.1640295156	0.7029082179	0.4960537553
8.1643530156	0.8625375032	0.4941503704
8.1646755156	0.9037528634	0.4941433072
8.1649925156	0.8363181949	0.4936282337
8.1653125156	0.6520633101	0.4949031174
8.1656250156	0.399384588	0.4956987798
8.1659470156	0.113649644	0.4953113794
8.1662685156	-0.1449048668	0.494582355
8.1665960156	-0.3084728122	0.4961724281
8.1669255156	-0.3261224926	0.4941291511
8.1672505156	-0.202656284	0.4968392253
8.1675770156	0.0324986838	0.4971060753
8.1678965156	0.3064510524	0.495456785
8.1682100156	0.5743089914	0.4979723692
8.1685230156	0.7913782597	0.4990391731
8.1688410156	0.8861349225	0.496676147
8.1691465156	0.8820458055	0.5000882149
8.1694475156	0.7546838522	0.4993540049
8.1697585156	0.5419270396	0.4953538179
8.1700650156	0.2729605436	0.4989559054
8.1703765156	-0.013637512	0.4969339073
8.1706935156	-0.2271705419	0.4960221946
8.1710220156	-0.3342411518	0.4979784787
8.1713505156	-0.2835435271	0.4954693913
8.1716725156	-0.0996604785	0.4942994416
8.1719930156	0.1600395441	0.4965353906
8.1723105156	0.4359198213	0.4955840111
8.1726260156	0.683393538	0.4944369793
8.1729490156	0.8431967497	0.4968897402
8.1732695156	0.8953863382	0.4959142506
8.1735935156	0.8257723451	0.4961802661
8.1739085156	0.6489326954	0.4958007336
8.1742225156	0.3987493515	0.4959867597
8.1745425156	0.118384324	0.4956596494
8.1748665156	-0.1253536195	0.4957860708
8.1751985156	-0.2933314741	0.4945981801
8.1755255156	-0.3203934133	0.4958050251
8.1758470156	-0.2024243176	0.4976058006
8.1760530156	0.8982585669	0.0681113154
