			
	m	t	
f	-5.84104E-05	0.244554	
			
X in nm	Y Signal 	f(x)	y-f
625.04	0.19918	0.208045164	-0.008865164
625.08	0.20636	0.208042827	-0.001682827
625.12	0.20921	0.208040491	0.001169509
625.16	0.21318	0.208038154	0.005141846
625.2	0.20957	0.208035818	0.001534182
625.24	0.21217	0.208033482	0.004136518
625.28	0.21293	0.208031145	0.004898855
625.32	0.20926	0.208028809	0.001231191
625.36	0.20931	0.208026472	0.001283528
625.4	0.20468	0.208024136	-0.003344136
625.44	0.2169	0.208021799	0.008878201
625.48	0.20651	0.208019463	-0.001509463
625.52	0.20758	0.208017127	-0.000437127
625.56	0.20733	0.20801479	-0.00068479
625.6	0.20458	0.208012454	-0.003432454
625.64	0.20906	0.208010117	0.001049883
625.68	0.2083	0.208007781	0.000292219
625.72	0.2084	0.208005445	0.000394555
625.76	0.21008	0.208003108	0.002076892
625.8	0.20438	0.208000772	-0.003620772
625.84	0.20432	0.207998435	-0.003678435
625.88	0.20443	0.207996099	-0.003566099
625.92	0.2085	0.207993762	0.000506238
625.96	0.2084	0.207991426	0.000408574
626	0.20916	0.20798909	0.00117091
626.04	0.20361	0.207986753	-0.004376753
626.08	0.21227	0.207984417	0.004285583
626.12	0.20458	0.20798208	-0.00340208
626.16	0.20443	0.207979744	-0.003549744
626.2	0.20473	0.207977408	-0.003247408
626.24	0.20539	0.207975071	-0.002585071
626.28	0.19989	0.207972735	-0.008082735
626.32	0.20142	0.207970398	-0.006550398
626.36	0.20432	0.207968062	-0.003648062
626.4	0.21797	0.207965725	0.010004275
626.44	0.21792	0.207963389	0.009956611
626.48	0.21023	0.207961053	0.002268947
626.52	0.2143	0.207958716	0.006341284
626.56	0.21395	0.20795638	0.00599362
626.6	0.22001	0.207954043	0.012055957
626.64	0.214	0.207951707	0.006048293
626.68	0.20845	0.207949371	0.000500629
626.72	0.2084	0.207947034	0.000452966
626.76	0.21491	0.207944698	0.006965302
626.8	0.21334	0.207942361	0.005397639
626.84	0.21293	0.207940025	0.004989975
626.88	0.20346	0.207937688	-0.004477688
626.92	0.20631	0.207935352	-0.001625352
626.96	0.20926	0.207933016	0.001326984
627	0.2002	0.207930679	-0.007730679
627.04	0.2002	0.207928343	-0.007728343
627.08	0.20188	0.207926006	-0.006046006
627.12	0.20911	0.20792367	0.00118633
627.16	0.21568	0.207921334	0.007758666
627.2	0.20993	0.207918997	0.002011003
627.24	0.20264	0.207916661	-0.005276661
627.28	0.20845	0.207914324	0.000535676
627.32	0.2084	0.207911988	0.000488012
627.36	0.20259	0.207909651	-0.005319651
627.4	0.20244	0.207907315	-0.005467315
627.44	0.20753	0.207904979	-0.000374979
627.48	0.21013	0.207902642	0.002227358
627.52	0.20626	0.207900306	-0.001640306
627.56	0.2084	0.207897969	0.000502031
627.6	0.20921	0.207895633	0.001314367
627.64	0.20952	0.207893297	0.001626703
627.68	0.20631	0.20789096	-0.00158096
627.72	0.21624	0.207888624	0.008351376
627.76	0.19969	0.207886287	-0.008196287
627.8	0.20824	0.207883951	0.000356049
627.84	0.20351	0.207881614	-0.004371614
627.88	0.19908	0.207879278	-0.008799278
627.92	0.19883	0.207876942	-0.009046942
627.96	0.20544	0.207874605	-0.002434605
628	0.20998	0.207872269	0.002107731
628.04	0.21013	0.207869932	0.002260068
628.08	0.20183	0.207867596	-0.006037596
628.12	0.2028	0.20786526	-0.00506526
628.16	0.2	0.207862923	-0.007862923
628.2	0.19995	0.207860587	-0.007910587
628.24	0.20631	0.20785825	-0.00154825
628.28	0.20178	0.207855914	-0.006075914
628.32	0.20086	0.207853577	-0.006993577
628.36	0.20081	0.207851241	-0.007041241
628.4	0.20285	0.207848905	-0.004998905
628.44	0.19338	0.207846568	-0.014466568
628.48	0.18757	0.207844232	-0.020274232
628.52	0.18742	0.207841895	-0.020421895
628.56	0.19429	0.207839559	-0.013549559
628.6	0.18391	0.207837223	-0.023927223
628.64	0.18233	0.207834886	-0.025504886
628.68	0.17994	0.20783255	-0.02789255
628.72	0.1724	0.207830213	-0.035430213
628.76	0.1697	0.207827877	-0.038127877
628.8	0.1694	0.20782554	-0.03842554
628.84	0.1583	0.207823204	-0.049523204
628.88	0.15173	0.207820868	-0.056090868
628.92	0.17047	0.207818531	-0.037348531
628.96	0.14974	0.207816195	-0.058076195
629	0.14791	0.207813858	-0.059903858
629.04	0.13671	0.207811522	-0.071101522
629.08	0.13661	0.207809186	-0.071199186
629.12	0.14068	0.207806849	-0.067126849
629.16	0.14323	0.207804513	-0.064574513
629.2	0.13386	0.207802176	-0.073942176
629.24	0.12755	0.20779984	-0.08024984
629.28	0.12531	0.207797503	-0.082487503
629.32	0.11955	0.207795167	-0.088245167
629.36	0.12077	0.207792831	-0.087022831
629.4	0.12062	0.207790494	-0.087170494
629.44	0.11482	0.207788158	-0.092968158
629.48	0.11105	0.207785821	-0.096735821
629.52	0.114	0.207783485	-0.093783485
629.56	0.1111	0.207781149	-0.096681149
629.6	0.1112	0.207778812	-0.096578812
629.64	0.10774	0.207776476	-0.100036476
629.68	0.10764	0.207774139	-0.100134139
629.72	0.10581	0.207771803	-0.101961803
629.76	0.11034	0.207769466	-0.097429466
629.8	0.10535	0.20776713	-0.10241713
629.84	0.10061	0.207764794	-0.107154794
629.88	0.10173	0.207762457	-0.106032457
629.92	0.09883	0.207760121	-0.108930121
629.96	0.10372	0.207757784	-0.104037784
630	0.10372	0.207755448	-0.104035448
630.04	0.09807	0.207753112	-0.109683112
630.08	0.09741	0.207750775	-0.110340775
630.12	0.1055	0.207748439	-0.102248439
630.16	0.09333	0.207746102	-0.114416102
630.2	0.09613	0.207743766	-0.111613766
630.24	0.09715	0.20774143	-0.11059143
630.28	0.09695	0.207739093	-0.110789093
630.32	0.0999	0.207736757	-0.107836757
630.36	0.10071	0.20773442	-0.10702442
630.4	0.09603	0.207732084	-0.111702084
630.44	0.09629	0.207729747	-0.111439747
630.48	0.0969	0.207727411	-0.110827411
630.52	0.09323	0.207725075	-0.114495075
630.56	0.09343	0.207722738	-0.114292738
630.6	0.09532	0.207720402	-0.112400402
630.64	0.09415	0.207718065	-0.113568065
630.68	0.09333	0.207715729	-0.114385729
630.72	0.09639	0.207713393	-0.111323393
630.76	0.09496	0.207711056	-0.112751056
630.8	0.09435	0.20770872	-0.11335872
630.84	0.09547	0.207706383	-0.112236383
630.88	0.09511	0.207704047	-0.112594047
630.92	0.09873	0.20770171	-0.10897171
630.96	0.0999	0.207699374	-0.107799374
631	0.09226	0.207697038	-0.115437038
631.04	0.09822	0.207694701	-0.109474701
631.08	0.09639	0.207692365	-0.111302365
631.12	0.09598	0.207690028	-0.111710028
631.16	0.09634	0.207687692	-0.111347692
631.2	0.10479	0.207685356	-0.102895356
631.24	0.10357	0.207683019	-0.104113019
631.28	0.10545	0.207680683	-0.102230683
631.32	0.11151	0.207678346	-0.096168346
631.36	0.11675	0.20767601	-0.09092601
631.4	0.11573	0.207673673	-0.091943673
631.44	0.12352	0.207671337	-0.084151337
631.48	0.12342	0.207669001	-0.084249001
631.52	0.12918	0.207666664	-0.078486664
631.56	0.13096	0.207664328	-0.076704328
631.6	0.13513	0.207661991	-0.072531991
631.64	0.14705	0.207659655	-0.060609655
631.68	0.14257	0.207657319	-0.065087319
631.72	0.14241	0.207654982	-0.065244982
631.76	0.14236	0.207652646	-0.065292646
631.8	0.15178	0.207650309	-0.055870309
631.84	0.15743	0.207647973	-0.050217973
631.88	0.16217	0.207645636	-0.045475636
631.92	0.15825	0.2076433	-0.0493933
631.96	0.15636	0.207640964	-0.051280964
632	0.16573	0.207638627	-0.041908627
632.04	0.16573	0.207636291	-0.041906291
632.08	0.15967	0.207633954	-0.047963954
632.12	0.1613	0.207631618	-0.046331618
632.16	0.17261	0.207629282	-0.035019282
632.2	0.17724	0.207626945	-0.030386945
632.24	0.17245	0.207624609	-0.035174609
632.28	0.17887	0.207622272	-0.028752272
632.32	0.17826	0.207619936	-0.029359936
632.36	0.17821	0.207617599	-0.029407599
632.4	0.17551	0.207615263	-0.032105263
632.44	0.16583	0.207612927	-0.041782927
632.48	0.16487	0.20761059	-0.04274059
632.52	0.17062	0.207608254	-0.036988254
632.56	0.16018	0.207605917	-0.047425917
632.6	0.15178	0.207603581	-0.055823581
632.64	0.15158	0.207601245	-0.056021245
632.68	0.15448	0.207598908	-0.053118908
632.72	0.15565	0.207596572	-0.051946572
632.76	0.15545	0.207594235	-0.052144235
632.8	0.14913	0.207591899	-0.058461899
632.84	0.14027	0.207589562	-0.067319562
632.88	0.14613	0.207587226	-0.061457226
632.92	0.14608	0.20758489	-0.06150489
632.96	0.13483	0.207582553	-0.072752553
633	0.14119	0.207580217	-0.066390217
633.04	0.13182	0.20757788	-0.07575788
633.08	0.12719	0.207575544	-0.080385544
633.12	0.12999	0.207573208	-0.077583208
633.16	0.12205	0.207570871	-0.085520871
633.2	0.11803	0.207568535	-0.089538535
633.24	0.11803	0.207566198	-0.089536198
633.28	0.12169	0.207563862	-0.085873862
633.32	0.11579	0.207561525	-0.091771525
633.36	0.11013	0.207559189	-0.097429189
633.4	0.11594	0.207556853	-0.091616853
633.44	0.10912	0.207554516	-0.098434516
633.48	0.10901	0.20755218	-0.09854218
633.52	0.10927	0.207549843	-0.098279843
633.56	0.10901	0.207547507	-0.098537507
633.6	0.1054	0.207545171	-0.102145171
633.64	0.10015	0.207542834	-0.107392834
633.68	0.10285	0.207540498	-0.104690498
633.72	0.09995	0.207538161	-0.107588161
633.76	0.10092	0.207535825	-0.106615825
633.8	0.10005	0.207533488	-0.107483488
633.84	0.09985	0.207531152	-0.107681152
633.88	0.09868	0.207528816	-0.108848816
633.92	0.10087	0.207526479	-0.106656479
633.96	0.09705	0.207524143	-0.110474143
634	0.09781	0.207521806	-0.109711806
634.04	0.09715	0.20751947	-0.11036947
634.08	0.09491	0.207517134	-0.112607134
634.12	0.09532	0.207514797	-0.112194797
634.16	0.10209	0.207512461	-0.105422461
634.2	0.09791	0.207510124	-0.109600124
634.24	0.09791	0.207507788	-0.109597788
634.28	0.09522	0.207505451	-0.112285451
634.32	0.1001	0.207503115	-0.107403115
634.36	0.09791	0.207500779	-0.109590779
634.4	0.09817	0.207498442	-0.109328442
634.44	0.08844	0.207496106	-0.119056106
634.48	0.09155	0.207493769	-0.115943769
634.52	0.09639	0.207491433	-0.111101433
634.56	0.09878	0.207489097	-0.108709097
634.6	0.09873	0.20748676	-0.10875676
634.64	0.10158	0.207484424	-0.105904424
634.68	0.09715	0.207482087	-0.110332087
634.72	0.097	0.207479751	-0.110479751
634.76	0.10168	0.207477414	-0.105797414
634.8	0.09527	0.207475078	-0.112205078
634.84	0.1028	0.207472742	-0.104672742
634.88	0.09985	0.207470405	-0.107620405
634.92	0.09888	0.207468069	-0.108588069
634.96	0.09415	0.207465732	-0.113315732
635	0.09415	0.207463396	-0.113313396
635.04	0.097	0.20746106	-0.11046106
635.08	0.1001	0.207458723	-0.107358723
635.12	0.09802	0.207456387	-0.109436387
635.16	0.08982	0.20745405	-0.11763405
635.2	0.1027	0.207451714	-0.104751714
635.24	0.0941	0.207449378	-0.113349378
635.28	0.09033	0.207447041	-0.117117041
635.32	0.09028	0.207444705	-0.117164705
635.36	0.10194	0.207442368	-0.105502368
635.4	0.10066	0.207440032	-0.106780032
635.44	0.10168	0.207437695	-0.105757695
635.48	0.09517	0.207435359	-0.112265359
635.52	0.09776	0.207433023	-0.109673023
635.56	0.0973	0.207430686	-0.110130686
635.6	0.09705	0.20742835	-0.11037835
635.64	0.09435	0.207426013	-0.113076013
635.68	0.09425	0.207423677	-0.113173677
635.72	0.09262	0.207421341	-0.114801341
635.76	0.09807	0.207419004	-0.109349004
635.8	0.0942	0.207416668	-0.113216668
635.84	0.09807	0.207414331	-0.109344331
635.88	0.09807	0.207411995	-0.109341995
635.92	0.09303	0.207409658	-0.114379658
635.96	0.0999	0.207407322	-0.107507322
636	0.09786	0.207404986	-0.109544986
636.04	0.0999	0.207402649	-0.107502649
636.08	0.09328	0.207400313	-0.114120313
636.12	0.10632	0.207397976	-0.101077976
636.16	0.09812	0.20739564	-0.10927564
636.2	0.09807	0.207393304	-0.109323304
636.24	0.09593	0.207390967	-0.111460967
636.28	0.0971	0.207388631	-0.110288631
636.32	0.10005	0.207386294	-0.107336294
636.36	0.09898	0.207383958	-0.108403958
636.4	0.10275	0.207381621	-0.104631621
636.44	0.09995	0.207379285	-0.107429285
636.48	0.09985	0.207376949	-0.107526949
636.52	0.09909	0.207374612	-0.108284612
636.56	0.10178	0.207372276	-0.105592276
636.6	0.09873	0.207369939	-0.108639939
636.64	0.09679	0.207367603	-0.110577603
636.68	0.10087	0.207365267	-0.106495267
636.72	0.09791	0.20736293	-0.10945293
636.76	0.09812	0.207360594	-0.109240594
636.8	0.09603	0.207358257	-0.111328257
636.84	0.10285	0.207355921	-0.104505921
636.88	0.09501	0.207353584	-0.112343584
636.92	0.09298	0.207351248	-0.114371248
636.96	0.09791	0.207348912	-0.109438912
637	0.0942	0.207346575	-0.113146575
637.04	0.1025	0.207344239	-0.104844239
637.08	0.1027	0.207341902	-0.104641902
637.12	0.0998	0.207339566	-0.107539566
637.16	0.10158	0.20733723	-0.10575723
637.2	0.09603	0.207334893	-0.111304893
637.24	0.0969	0.207332557	-0.110432557
637.28	0.11039	0.20733022	-0.09694022
637.32	0.09527	0.207327884	-0.112057884
637.36	0.09506	0.207325547	-0.112265547
637.4	0.09791	0.207323211	-0.109413211
637.44	0.09725	0.207320875	-0.110070875
637.48	0.10082	0.207318538	-0.106498538
637.52	0.1026	0.207316202	-0.104716202
637.56	0.0998	0.207313865	-0.107513865
637.6	0.10626	0.207311529	-0.101051529
637.64	0.09695	0.207309193	-0.110359193
637.68	0.09679	0.207306856	-0.110516856
637.72	0.09807	0.20730452	-0.10923452
637.76	0.097	0.207302183	-0.110302183
637.8	0.10183	0.207299847	-0.105469847
637.84	0.10066	0.20729751	-0.10663751
637.88	0.10922	0.207295174	-0.098075174
637.92	0.10306	0.207292838	-0.104232838
637.96	0.10265	0.207290501	-0.104640501
638	0.10077	0.207288165	-0.106518165
638.04	0.10377	0.207285828	-0.103515828
638.08	0.10621	0.207283492	-0.101073492
638.12	0.1082	0.207281156	-0.099081156
638.16	0.10835	0.207278819	-0.098928819
638.2	0.1109	0.207276483	-0.096376483
638.24	0.1113	0.207274146	-0.095974146
638.28	0.11283	0.20727181	-0.09444181
638.32	0.1056	0.207269473	-0.101669473
638.36	0.11314	0.207267137	-0.094127137
638.4	0.11197	0.207264801	-0.095294801
638.44	0.11304	0.207262464	-0.094222464
638.48	0.11487	0.207260128	-0.092390128
638.52	0.12912	0.207257791	-0.078137791
638.56	0.12923	0.207255455	-0.078025455
638.6	0.12368	0.207253119	-0.083573119
638.64	0.12449	0.207250782	-0.082760782
638.68	0.12714	0.207248446	-0.080108446
638.72	0.12424	0.207246109	-0.083006109
638.76	0.12831	0.207243773	-0.078933773
638.8	0.136	0.207241436	-0.071241436
638.84	0.13564	0.2072391	-0.0715991
638.88	0.13488	0.207236764	-0.072356764
638.92	0.14109	0.207234427	-0.066144427
638.96	0.15183	0.207232091	-0.055402091
639	0.14694	0.207229754	-0.060289754
639.04	0.15071	0.207227418	-0.056517418
639.08	0.16008	0.207225082	-0.047145082
639.12	0.15641	0.207222745	-0.050812745
639.16	0.15636	0.207220409	-0.050860409
639.2	0.16665	0.207218072	-0.040568072
639.24	0.1668	0.207215736	-0.040415736
639.28	0.17541	0.207213399	-0.031803399
639.32	0.18376	0.207211063	-0.023451063
639.36	0.17831	0.207208727	-0.028898727
639.4	0.18106	0.20720639	-0.02614639
639.44	0.18131	0.207204054	-0.025894054
639.48	0.18101	0.207201717	-0.026191717
639.52	0.19414	0.207199381	-0.013059381
639.56	0.19241	0.207197045	-0.014787045
639.6	0.20254	0.207194708	-0.004654708
639.64	0.20621	0.207192372	-0.000982372
639.68	0.21486	0.207190035	0.007669965
639.72	0.21476	0.207187699	0.007572301
639.76	0.21222	0.207185362	0.005034638
639.8	0.21043	0.207183026	0.003246974
639.84	0.21792	0.20718069	0.01073931
639.88	0.21497	0.207178353	0.007791647
639.92	0.22622	0.207176017	0.019043983
639.96	0.2309	0.20717368	0.02372632
640	0.23457	0.207171344	0.027398656
640.04	0.23477	0.207169008	0.027600992
640.08	0.2393	0.207166671	0.032133329
640.12	0.24027	0.207164335	0.033105665
640.16	0.23925	0.207161998	0.032088002
640.2	0.23029	0.207159662	0.023130338
640.24	0.24205	0.207157326	0.034892674
640.28	0.25081	0.207154989	0.043655011
640.32	0.25061	0.207152653	0.043457347
640.36	0.26308	0.207150316	0.055929684
640.4	0.26476	0.20714798	0.05761202
640.44	0.27046	0.207145643	0.063314357
640.48	0.26593	0.207143307	0.058786693
640.52	0.28518	0.207140971	0.078039029
640.56	0.28533	0.207138634	0.078191366
640.6	0.28553	0.207136298	0.078393702
640.64	0.28365	0.207133961	0.076516039
640.68	0.29592	0.207131625	0.088788375
640.72	0.292	0.207129289	0.084870711
640.76	0.29877	0.207126952	0.091643048
640.8	0.30457	0.207124616	0.097445384
640.84	0.31002	0.207122279	0.102897721
640.88	0.33721	0.207119943	0.130090057
640.92	0.33711	0.207117606	0.129992394
640.96	0.32255	0.20711527	0.11543473
641	0.35243	0.207112934	0.145317066
641.04	0.33726	0.207110597	0.130149403
641.08	0.37326	0.207108261	0.166151739
641.12	0.37891	0.207105924	0.171804076
641.16	0.38441	0.207103588	0.177306412
641.2	0.38456	0.207101252	0.177458748
641.24	0.39209	0.207098915	0.184991085
641.28	0.3977	0.207096579	0.190603421
641.32	0.4006	0.207094242	0.193505758
641.36	0.4118	0.207091906	0.204708094
641.4	0.40823	0.207089569	0.201140431
641.44	0.41964	0.207087233	0.212552767
641.48	0.40355	0.207084897	0.196465103
641.52	0.4036	0.20708256	0.19651744
641.56	0.40798	0.207080224	0.200899776
641.6	0.40426	0.207077887	0.197182113
641.64	0.42626	0.207075551	0.219184449
641.68	0.40986	0.207073215	0.202786785
641.72	0.41114	0.207070878	0.204069122
641.76	0.39759	0.207068542	0.190521458
641.8	0.3977	0.207066205	0.190633795
641.84	0.40268	0.207063869	0.195616131
641.88	0.3951	0.207061532	0.188038468
641.92	0.39031	0.207059196	0.183250804
641.96	0.38293	0.20705686	0.17587314
642	0.36669	0.207054523	0.159635477
642.04	0.36664	0.207052187	0.159587813
642.08	0.36649	0.20704985	0.15944015
642.12	0.37407	0.207047514	0.167022486
642.16	0.35635	0.207045178	0.149304822
642.2	0.34108	0.207042841	0.134037159
642.24	0.3364	0.207040505	0.129359495
642.28	0.32988	0.207038168	0.122841832
642.32	0.32993	0.207035832	0.122894168
642.36	0.2948	0.207033495	0.087766505
642.4	0.29495	0.207031159	0.087918841
642.44	0.29964	0.207028823	0.092611177
642.48	0.29393	0.207026486	0.086903514
642.52	0.2978	0.20702415	0.09077585
642.56	0.28828	0.207021813	0.081258187
642.6	0.28655	0.207019477	0.079530523
642.64	0.27907	0.207017141	0.072052859
642.68	0.27896	0.207014804	0.071945196
642.72	0.27728	0.207012468	0.070267532
642.76	0.26282	0.207010131	0.055809869
642.8	0.27988	0.207007795	0.072872205
642.84	0.2784	0.207005458	0.071394542
642.88	0.27423	0.207003122	0.067226878
642.92	0.26832	0.207000786	0.061319214
642.96	0.25259	0.206998449	0.045591551
643	0.25264	0.206996113	0.045643887
643.04	0.25926	0.206993776	0.052266224
643.08	0.27148	0.20699144	0.06448856
643.12	0.267	0.206989104	0.060010896
643.16	0.27438	0.206986767	0.067393233
643.2	0.26303	0.206984431	0.056045569
643.24	0.27718	0.206982094	0.070197906
643.28	0.27698	0.206979758	0.070000242
643.32	0.26288	0.206977421	0.055902579
643.36	0.26949	0.206975085	0.062514915
643.4	0.27805	0.206972749	0.071077251
643.44	0.26858	0.206970412	0.061609588
643.48	0.26221	0.206968076	0.055241924
643.52	0.25814	0.206965739	0.051174261
643.56	0.25824	0.206963403	0.051276597
643.6	0.26384	0.206961067	0.056878933
643.64	0.26481	0.20695873	0.05785127
643.68	0.27235	0.206956394	0.065393606
643.72	0.26674	0.206954057	0.059785943
643.76	0.26094	0.206951721	0.053988279
643.8	0.26848	0.206949384	0.061530616
643.84	0.27601	0.206947048	0.069062952
643.88	0.27596	0.206944712	0.069015288
643.92	0.27143	0.206942375	0.064487625
643.96	0.26588	0.206940039	0.058939961
644	0.27352	0.206937702	0.066582298
644.04	0.27331	0.206935366	0.066374634
644.08	0.26878	0.20693303	0.06184697
644.12	0.27891	0.206930693	0.071979307
644.16	0.27902	0.206928357	0.072091643
644.2	0.26685	0.20692602	0.05992398
644.24	0.27408	0.206923684	0.067156316
644.28	0.2807	0.206921347	0.073778653
644.32	0.2807	0.206919011	0.073780989
644.36	0.28548	0.206916675	0.078563325
644.4	0.28808	0.206914338	0.081165662
644.44	0.28818	0.206912002	0.081267998
644.48	0.28579	0.206909665	0.078880335
644.52	0.29312	0.206907329	0.086212671
644.56	0.28548	0.206904993	0.078575007
644.6	0.30549	0.206902656	0.098587344
644.64	0.30819	0.20690032	0.10128968
644.68	0.30814	0.206897983	0.101242017
644.72	0.31934	0.206895647	0.112444353
644.76	0.31934	0.20689331	0.11244669
644.8	0.33813	0.206890974	0.131239026
644.84	0.34164	0.206888638	0.134751362
644.88	0.33349	0.206886301	0.126603699
644.92	0.35075	0.206883965	0.143866035
644.96	0.35656	0.206881628	0.149678372
645	0.35651	0.206879292	0.149630708
645.04	0.35635	0.206876956	0.149473044
645.08	0.37606	0.206874619	0.169185381
645.12	0.37448	0.206872283	0.167607717
645.16	0.38751	0.206869946	0.180640054
645.2	0.39973	0.20686761	0.19286239
645.24	0.41552	0.206865274	0.208654726
645.28	0.39683	0.206862937	0.189967063
645.32	0.41928	0.206860601	0.212419399
645.36	0.41959	0.206858264	0.212731736
645.4	0.42524	0.206855928	0.218384072
645.44	0.43471	0.206853591	0.227856409
645.48	0.42239	0.206851255	0.215538745
645.52	0.42168	0.206848919	0.214831081
645.56	0.42616	0.206846582	0.219313418
645.6	0.42967	0.206844246	0.222825754
645.64	0.42987	0.206841909	0.223028091
645.68	0.41282	0.206839573	0.205980427
645.72	0.42519	0.206837237	0.218352763
645.76	0.43257	0.2068349	0.2257351
645.8	0.41363	0.206832564	0.206797436
645.84	0.39668	0.206830227	0.189849773
645.88	0.39591	0.206827891	0.189082109
645.92	0.39581	0.206825554	0.188984446
645.96	0.3977	0.206823218	0.190876782
646	0.38268	0.206820882	0.175859118
646.04	0.38191	0.206818545	0.175091455
646.08	0.35727	0.206816209	0.150453791
646.12	0.36226	0.206813872	0.155446128
646.16	0.36109	0.206811536	0.154278464
646.2	0.34398	0.2068092	0.1371708
646.24	0.34413	0.206806863	0.137323137
646.28	0.34225	0.206804527	0.135445473
646.32	0.32122	0.20680219	0.11441781
646.36	0.31211	0.206799854	0.105310146
646.4	0.30544	0.206797517	0.098642483
646.44	0.29515	0.206795181	0.088354819
646.48	0.2895	0.206792845	0.082707155
646.52	0.28961	0.206790508	0.082819492
646.56	0.29011	0.206788172	0.083321828
646.6	0.29139	0.206785835	0.084604165
646.64	0.26394	0.206783499	0.057156501
646.68	0.27886	0.206781163	0.072078837
646.72	0.25936	0.206778826	0.052581174
646.76	0.26848	0.20677649	0.06170351
646.8	0.26028	0.206774153	0.053505847
646.84	0.26028	0.206771817	0.053508183
646.88	0.264	0.20676948	0.05723052
646.92	0.25997	0.206767144	0.053202856
646.96	0.26308	0.206764808	0.056315192
647	0.27606	0.206762471	0.069297529
647.04	0.26787	0.206760135	0.061109865
647.08	0.25356	0.206757798	0.046802202
647.12	0.25371	0.206755462	0.046954538
647.16	0.25549	0.206753126	0.048736874
647.2	0.25646	0.206750789	0.049709211
647.24	0.25249	0.206748453	0.045741547
647.28	0.25259	0.206746116	0.045843884
647.32	0.26832	0.20674378	0.06157622
647.36	0.25157	0.206741443	0.044828557
647.4	0.25173	0.206739107	0.044990893
647.44	0.25941	0.206736771	0.052673229
647.48	0.26176	0.206734434	0.055025566
647.52	0.26048	0.206732098	0.053747902
647.56	0.25646	0.206729761	0.049730239
647.6	0.24618	0.206727425	0.039452575
647.64	0.25931	0.206725089	0.052584911
647.68	0.25458	0.206722752	0.047857248
647.72	0.25458	0.206720416	0.047859584
647.76	0.25651	0.206718079	0.049791921
647.8	0.2588	0.206715743	0.052084257
647.84	0.24984	0.206713406	0.043126594
647.88	0.25453	0.20671107	0.04781893
647.92	0.26944	0.206708734	0.062731266
647.96	0.25081	0.206706397	0.044103603
648	0.25106	0.206704061	0.044355939
648.04	0.26613	0.206701724	0.059428276
648.08	0.24226	0.206699388	0.035560612
648.12	0.24261	0.206697052	0.035912948
648.16	0.26211	0.206694715	0.055415285
648.2	0.25183	0.206692379	0.045137621
648.24	0.25442	0.206690042	0.047729958
648.28	0.25437	0.206687706	0.047682294
648.32	0.26501	0.206685369	0.058324631
648.36	0.24562	0.206683033	0.038936967
648.4	0.25234	0.206680697	0.045659303
648.44	0.2584	0.20667836	0.05172164
648.48	0.26476	0.206676024	0.058083976
648.52	0.2584	0.206673687	0.051726313
648.56	0.25101	0.206671351	0.044338649
648.6	0.25081	0.206669015	0.044140985
648.64	0.2584	0.206666678	0.051733322
648.68	0.26191	0.206664342	0.055245658
648.72	0.24893	0.206662005	0.042267995
648.76	0.25086	0.206659669	0.044200331
648.8	0.24226	0.206657332	0.035602668
648.84	0.25931	0.206654996	0.052655004
648.88	0.25911	0.20665266	0.05245734
648.92	0.26496	0.206650323	0.058309677
648.96	0.26211	0.206647987	0.055462013
649	0.25539	0.20664565	0.04874435
649.04	0.24872	0.206643314	0.042076686
649.08	0.25173	0.206640978	0.045089022
649.12	0.25666	0.206638641	0.050021359
649.16	0.25386	0.206636305	0.047223695
649.2	0.25346	0.206633968	0.046826032
649.24	0.25646	0.206631632	0.049828368
649.28	0.24898	0.206629295	0.042350705
649.32	0.24954	0.206626959	0.042913041
649.36	0.25259	0.206624623	0.045965377
649.4	0.25941	0.206622286	0.052787714
649.44	0.26008	0.20661995	0.05346005
649.48	0.25997	0.206617613	0.053352387
649.52	0.27591	0.206615277	0.069294723
649.56	0.26206	0.206612941	0.055447059
649.6	0.26191	0.206610604	0.055299396
649.64	0.24434	0.206608268	0.037731732
649.68	0.26532	0.206605931	0.058714069
649.72	0.26226	0.206603595	0.055656405
649.76	0.26216	0.206601258	0.055558742
649.8	0.27224	0.206598922	0.065641078
649.84	0.27907	0.206596586	0.072473414
649.88	0.26379	0.206594249	0.057195751
649.92	0.27046	0.206591913	0.063868087
649.96	0.28166	0.206589576	0.075070424
650	0.27723	0.20658724	0.07064276
650.04	0.28849	0.206584904	0.081905096
650.08	0.28838	0.206582567	0.081797433
650.12	0.28757	0.206580231	0.080989769
650.16	0.29235	0.206577894	0.085772106
650.2	0.29897	0.206575558	0.092394442
650.24	0.29796	0.206573222	0.091386778
650.28	0.29658	0.206570885	0.090009115
650.32	0.30722	0.206568549	0.100651451
650.36	0.30707	0.206566212	0.100503788
650.4	0.331	0.206563876	0.124436124
650.44	0.31674	0.206561539	0.110178461
650.48	0.33446	0.206559203	0.127900797
650.52	0.36032	0.206556867	0.153763133
650.56	0.3505	0.20655453	0.14394547
650.6	0.38359	0.206552194	0.177037806
650.64	0.38965	0.206549857	0.183100143
650.68	0.39586	0.206547521	0.189312479
650.72	0.40162	0.206545185	0.195074815
650.76	0.42692	0.206542848	0.220377152
650.8	0.44123	0.206540512	0.234689488
650.84	0.45625	0.206538175	0.249711825
650.88	0.47768	0.206535839	0.271144161
650.92	0.49667	0.206533502	0.290136498
650.96	0.49667	0.206531166	0.290138834
651	0.53409	0.20652883	0.32756117
651.04	0.54677	0.206526493	0.340243507
651.08	0.56261	0.206524157	0.356085843
651.12	0.58903	0.20652182	0.38250818
651.16	0.61922	0.206519484	0.412700516
651.2	0.62131	0.206517148	0.414792852
651.24	0.62095	0.206514811	0.414435189
651.28	0.64376	0.206512475	0.437247525
651.32	0.68129	0.206510138	0.474779862
651.36	0.68042	0.206507802	0.473912198
651.4	0.70659	0.206505465	0.500084535
651.44	0.71631	0.206503129	0.509806871
651.48	0.71326	0.206500793	0.506759207
651.52	0.7348	0.206498456	0.528301544
651.56	0.73505	0.20649612	0.52855388
651.6	0.7183	0.206493783	0.511806217
651.64	0.73312	0.206491447	0.526628553
651.68	0.7154	0.206489111	0.508910889
651.72	0.71535	0.206486774	0.508863226
651.76	0.72278	0.206484438	0.516295562
651.8	0.70384	0.206482101	0.497357899
651.84	0.70425	0.206479765	0.497770235
651.88	0.68984	0.206477428	0.483362572
651.92	0.69264	0.206475092	0.486164908
651.96	0.65965	0.206472756	0.453177244
652	0.62864	0.206470419	0.422169581
652.04	0.6013	0.206468083	0.394831917
652.08	0.59275	0.206465746	0.386284254
652.12	0.5927	0.20646341	0.38623659
652.16	0.55685	0.206461074	0.350388926
652.2	0.55217	0.206458737	0.345711263
652.24	0.51658	0.206456401	0.310123599
652.28	0.48084	0.206454064	0.274385936
652.32	0.462	0.206451728	0.255548272
652.36	0.46205	0.206449391	0.255600609
652.4	0.42213	0.206447055	0.215682945
652.44	0.42219	0.206444719	0.215745281
652.48	0.39332	0.206442382	0.186877618
652.52	0.39602	0.206440046	0.189579954
652.56	0.36379	0.206437709	0.157352291
652.6	0.35162	0.206435373	0.145184627
652.64	0.3448	0.206433037	0.138366963
652.68	0.31028	0.2064307	0.1038493
652.72	0.31007	0.206428364	0.103641636
652.76	0.32423	0.206426027	0.117803973
652.8	0.31404	0.206423691	0.107616309
652.84	0.29678	0.206421354	0.090358646
652.88	0.29887	0.206419018	0.092450982
652.92	0.28716	0.206416682	0.080743318
652.96	0.28446	0.206414345	0.078045655
653	0.28273	0.206412009	0.076317991
653.04	0.28268	0.206409672	0.076270328
653.08	0.26501	0.206407336	0.058602664
653.12	0.2809	0.206405	0.074495
653.16	0.26955	0.206402663	0.063147337
653.2	0.28166	0.206400327	0.075259673
653.24	0.26506	0.20639799	0.05866201
653.28	0.26328	0.206395654	0.056884346
653.32	0.26303	0.206393317	0.056636683
653.36	0.25855	0.206390981	0.052159019
653.4	0.26201	0.206388645	0.055621355
653.44	0.26191	0.206386308	0.055523692
653.48	0.24959	0.206383972	0.043206028
653.52	0.25437	0.206381635	0.047988365
653.56	0.25671	0.206379299	0.050330701
653.6	0.25631	0.206376963	0.049933037
653.64	0.267	0.206374626	0.060625374
653.68	0.24806	0.20637229	0.04168771
653.72	0.24974	0.206369953	0.043370047
653.76	0.26002	0.206367617	0.053652383
653.8	0.26226	0.20636528	0.05589472
653.84	0.25259	0.206362944	0.046227056
653.88	0.26043	0.206360608	0.054069392
653.92	0.26013	0.206358271	0.053771729
653.96	0.24989	0.206355935	0.043534065
654	0.245	0.206353598	0.038646402
654.04	0.24394	0.206351262	0.037588738
654.08	0.25437	0.206348926	0.048021074
654.12	0.24414	0.206346589	0.037793411
654.16	0.25366	0.206344253	0.047315747
654.2	0.25376	0.206341916	0.047418084
654.24	0.25738	0.20633958	0.05104042
654.28	0.24699	0.206337243	0.040652757
654.32	0.25351	0.206334907	0.047175093
654.36	0.25239	0.206332571	0.046057429
654.4	0.24984	0.206330234	0.043509766
654.44	0.25152	0.206327898	0.045192102
654.48	0.25167	0.206325561	0.045344439
654.52	0.25325	0.206323225	0.046926775
654.56	0.25173	0.206320889	0.045409111
654.6	0.25911	0.206318552	0.052791448
654.64	0.2478	0.206316216	0.041483784
654.68	0.25829	0.206313879	0.051976121
654.72	0.24811	0.206311543	0.041798457
654.76	0.25274	0.206309206	0.046430794
654.8	0.253	0.20630687	0.04669313
654.84	0.25926	0.206304534	0.052955466
654.88	0.25086	0.206302197	0.044557803
654.92	0.2532	0.206299861	0.046900139
654.96	0.25274	0.206297524	0.046442476
655	0.24521	0.206295188	0.038914812
655.04	0.24302	0.206292852	0.036727148
655.08	0.24327	0.206290515	0.036979485
655.12	0.24628	0.206288179	0.039991821
655.16	0.24602	0.206285842	0.039734158
655.2	0.25549	0.206283506	0.049206494
655.24	0.24979	0.20628117	0.04350883
655.28	0.25453	0.206278833	0.048251167
655.32	0.25626	0.206276497	0.049983503
655.36	0.25279	0.20627416	0.04651584
655.4	0.25264	0.206271824	0.046368176
655.44	0.25921	0.206269487	0.052940513
655.48	0.25081	0.206267151	0.044542849
655.52	0.25081	0.206264815	0.044545185
655.56	0.25356	0.206262478	0.047297522
655.6	0.24903	0.206260142	0.042769858
655.64	0.24806	0.206257805	0.041802195
655.68	0.24801	0.206255469	0.041754531
655.72	0.24597	0.206253133	0.039716867
655.76	0.25381	0.206250796	0.047559204
655.8	0.24307	0.20624846	0.03682154
655.84	0.25178	0.206246123	0.045533877
655.88	0.26038	0.206243787	0.054136213
655.92	0.25437	0.20624145	0.04812855
655.96	0.25432	0.206239114	0.048080886
656	0.24623	0.206236778	0.039993222
656.04	0.24047	0.206234441	0.034235559
656.08	0.24694	0.206232105	0.040707895
656.12	0.24602	0.206229768	0.039790232
656.16	0.25178	0.206227432	0.045552568
656.2	0.25162	0.206225096	0.045394904
656.24	0.25753	0.206222759	0.051307241
656.28	0.25733	0.206220423	0.051109577
656.32	0.25666	0.206218086	0.050441914
656.36	0.24699	0.20621575	0.04077425
656.4	0.25931	0.206213413	0.053096587
656.44	0.25911	0.206211077	0.052898923
656.48	0.245	0.206208741	0.038791259
656.52	0.24607	0.206206404	0.039863596
656.56	0.24618	0.206204068	0.039975932
656.6	0.23762	0.206201731	0.031418269
656.64	0.24495	0.206199395	0.038750605
656.68	0.24999	0.206197059	0.043792941
656.72	0.24231	0.206194722	0.036115278
656.76	0.24521	0.206192386	0.039017614
656.8	0.24241	0.206190049	0.036219951
656.84	0.25615	0.206187713	0.049962287
656.88	0.25641	0.206185376	0.050224624
656.92	0.24699	0.20618304	0.04080696
656.96	0.24032	0.206180704	0.034139296
657	0.25157	0.206178367	0.045391633
657.04	0.24129	0.206176031	0.035113969
657.08	0.25173	0.206173694	0.045556306
657.12	0.2366	0.206171358	0.030428642
657.16	0.2366	0.206169022	0.030430978
657.2	0.24037	0.206166685	0.034203315
657.24	0.24017	0.206164349	0.034005651
657.28	0.24439	0.206162012	0.038227988
657.32	0.24063	0.206159676	0.034470324
657.36	0.25549	0.206157339	0.049332661
657.4	0.24322	0.206155003	0.037064997
657.44	0.24307	0.206152667	0.036917333
657.48	0.23167	0.20615033	0.02551967
657.52	0.24964	0.206147994	0.043492006
657.56	0.23849	0.206145657	0.032344343
657.6	0.24017	0.206143321	0.034026679
657.64	0.24139	0.206140985	0.035249015
657.68	0.24037	0.206138648	0.034231352
657.72	0.24312	0.206136312	0.036983688
657.76	0.24338	0.206133975	0.037246025
657.8	0.24134	0.206131639	0.035208361
657.84	0.24511	0.206129302	0.038980698
657.88	0.25651	0.206126966	0.050383034
657.92	0.24444	0.20612463	0.03831537
657.96	0.24709	0.206122293	0.040967707
658	0.24842	0.206119957	0.042300043
658.04	0.24877	0.20611762	0.04265238
658.08	0.2421	0.206115284	0.035984716
658.12	0.25264	0.206112948	0.046527052
658.16	0.245	0.206110611	0.038889389
658.2	0.24607	0.206108275	0.039961725
658.24	0.24322	0.206105938	0.037114062
658.28	0.24495	0.206103602	0.038846398
658.32	0.24465	0.206101265	0.038548735
658.36	0.23859	0.206098929	0.032491071
658.4	0.23487	0.206096593	0.028773407
658.44	0.23925	0.206094256	0.033155744
658.48	0.24984	0.20609192	0.04374808
658.52	0.24786	0.206089583	0.041770417
658.56	0.24862	0.206087247	0.042532753
658.6	0.24984	0.206084911	0.043755089
658.64	0.24989	0.206082574	0.043807426
658.68	0.24984	0.206080238	0.043759762
658.72	0.25941	0.206077901	0.053332099
658.76	0.25096	0.206075565	0.044884435
658.8	0.23762	0.206073228	0.031546772
658.84	0.25651	0.206070892	0.050439108
658.88	0.24139	0.206068556	0.035321444
658.92	0.24134	0.206066219	0.035273781
658.96	0.25152	0.206063883	0.045456117
659	0.23553	0.206061546	0.029468454
659.04	0.24612	0.20605921	0.04006079
659.08	0.24134	0.206056874	0.035283126
659.12	0.24129	0.206054537	0.035235463
659.16	0.25071	0.206052201	0.044657799
659.2	0.24246	0.206049864	0.036410136
659.24	0.24226	0.206047528	0.036212472
659.28	0.24628	0.206045191	0.040234809
659.32	0.24144	0.206042855	0.035397145
659.36	0.23925	0.206040519	0.033209481
659.4	0.24307	0.206038182	0.037031818
659.44	0.24124	0.206035846	0.035204154
659.48	0.24327	0.206033509	0.037236491
659.52	0.24307	0.206031173	0.037038827
659.56	0.25178	0.206028837	0.045751163
659.6	0.24786	0.2060265	0.0418335
659.64	0.24801	0.206024164	0.041985836
659.68	0.24607	0.206021827	0.040048173
659.72	0.24577	0.206019491	0.039750509
659.76	0.23579	0.206017154	0.029772846
659.8	0.23569	0.206014818	0.029675182
659.84	0.23844	0.206012482	0.032427518
659.88	0.24908	0.206010145	0.043069855
659.92	0.24154	0.206007809	0.035532191
659.96	0.23289	0.206005472	0.026884528
660	0.23935	0.206003136	0.033346864
660.04	0.24796	0.2060008	0.0419592
660.08	0.24098	0.205998463	0.034981537
660.12	0.24124	0.205996127	0.035243873
660.16	0.23655	0.20599379	0.03055621
660.2	0.24663	0.205991454	0.040638546
660.24	0.24434	0.205989118	0.038350882
660.28	0.23935	0.205986781	0.033363219
660.32	0.23737	0.205984445	0.031385555
660.36	0.24429	0.205982108	0.038307892
660.4	0.24409	0.205979772	0.038110228
660.44	0.23665	0.205977435	0.030672565
660.48	0.24638	0.205975099	0.040404901
660.52	0.24226	0.205972763	0.036287237
660.56	0.23732	0.205970426	0.031349574
660.6	0.24684	0.20596809	0.04087191
660.64	0.23762	0.205965753	0.031654247
660.68	0.24134	0.205963417	0.035376583
660.72	0.24129	0.205961081	0.035328919
660.76	0.24236	0.205958744	0.036401256
660.8	0.23075	0.205956408	0.024793592
660.84	0.24317	0.205954071	0.037215929
660.88	0.23844	0.205951735	0.032488265
660.92	0.23935	0.205949398	0.033400602
660.96	0.24052	0.205947062	0.034572938
661	0.24058	0.205944726	0.034635274
661.04	0.24796	0.205942389	0.042017611
661.08	0.23009	0.205940053	0.024149947
661.12	0.23462	0.205937716	0.028682284
661.16	0.2391	0.20593538	0.03316462
661.2	0.2422	0.205933044	0.036266956
661.24	0.24042	0.205930707	0.034489293
661.28	0.24042	0.205928371	0.034491629
661.32	0.23946	0.205926034	0.033533966
661.36	0.23752	0.205923698	0.031596302
661.4	0.23869	0.205921361	0.032768639
661.44	0.25188	0.205919025	0.045960975
661.48	0.23956	0.205916689	0.033643311
661.52	0.23823	0.205914352	0.032315648
661.56	0.23477	0.205912016	0.028857984
661.6	0.23472	0.205909679	0.028810321
661.64	0.22988	0.205907343	0.023972657
661.68	0.25356	0.205905007	0.047654993
661.72	0.23477	0.20590267	0.02886733
661.76	0.23559	0.205900334	0.029689666
661.8	0.23849	0.205897997	0.032592003
661.84	0.23752	0.205895661	0.031624339
661.88	0.23752	0.205893324	0.031626676
661.92	0.23742	0.205890988	0.031529012
661.96	0.24495	0.205888652	0.039061348
662	0.24602	0.205886315	0.040133685
662.04	0.2252	0.205883979	0.019316021
662.08	0.24577	0.205881642	0.039888358
662.12	0.24414	0.205879306	0.038260694
662.16	0.24231	0.20587697	0.03643303
662.2	0.24047	0.205874633	0.034595367
662.24	0.22999	0.205872297	0.024117703
662.28	0.23391	0.20586996	0.02804004
662.32	0.22907	0.205867624	0.023202376
662.36	0.2393	0.205865287	0.033434713
662.4	0.23289	0.205862951	0.027027049
662.44	0.24383	0.205860615	0.037969385
662.48	0.24399	0.205858278	0.038131722
662.52	0.24047	0.205855942	0.034614058
662.56	0.23833	0.205853605	0.032476395
662.6	0.24231	0.205851269	0.036458731
662.64	0.24796	0.205848933	0.042111067
662.68	0.2392	0.205846596	0.033353404
662.72	0.23732	0.20584426	0.03147574
662.76	0.23747	0.205841923	0.031628077
662.8	0.24419	0.205839587	0.038350413
662.84	0.22642	0.20583725	0.02058275
662.88	0.23671	0.205834914	0.030875086
662.92	0.23737	0.205832578	0.031537422
662.96	0.23004	0.205830241	0.024209759
663	0.231	0.205827905	0.025172095
663.04	0.22433	0.205825568	0.018504432
663.08	0.22433	0.205823232	0.018506768
663.12	0.23854	0.205820896	0.032719104
663.16	0.23569	0.205818559	0.029871441
663.2	0.23839	0.205816223	0.032573777
663.24	0.24383	0.205813886	0.038016114
663.28	0.23935	0.20581155	0.03353845
663.32	0.24704	0.205809213	0.041230787
663.36	0.24704	0.205806877	0.041233123
663.4	0.23727	0.205804541	0.031465459
663.44	0.24052	0.205802204	0.034717796
663.48	0.24424	0.205799868	0.038440132
663.52	0.24119	0.205797531	0.035392469
663.56	0.24322	0.205795195	0.037424805
663.6	0.25738	0.205792859	0.051587141
663.64	0.25717	0.205790522	0.051379478
663.68	0.24689	0.205788186	0.041101814
663.72	0.24791	0.205785849	0.042124151
663.76	0.25071	0.205783513	0.044926487
663.8	0.24103	0.205781176	0.035248824
663.84	0.23757	0.20577884	0.03179116
663.88	0.24485	0.205776504	0.039073496
663.92	0.25188	0.205774167	0.046105833
663.96	0.25188	0.205771831	0.046108169
664	0.24623	0.205769494	0.040460506
664.04	0.25733	0.205767158	0.051562842
664.08	0.25539	0.205764822	0.049625178
664.12	0.25147	0.205762485	0.045707515
664.16	0.2669	0.205760149	0.061139851
664.2	0.2422	0.205757812	0.036442188
664.24	0.24236	0.205755476	0.036604524
664.28	0.26568	0.205753139	0.059926861
664.32	0.25911	0.205750803	0.053359197
664.36	0.26379	0.205748467	0.058041533
664.4	0.27688	0.20574613	0.07113387
664.44	0.25997	0.205743794	0.054226206
664.48	0.26226	0.205741457	0.056518543
664.52	0.26226	0.205739121	0.056520879
664.56	0.26196	0.205736785	0.056223215
664.6	0.27051	0.205734448	0.064775552
664.64	0.27123	0.205732112	0.065497888
664.68	0.2669	0.205729775	0.061170225
664.72	0.27718	0.205727439	0.071452561
664.76	0.28166	0.205725102	0.075934898
664.8	0.27591	0.205722766	0.070187234
664.84	0.27606	0.20572043	0.07033957
664.88	0.2725	0.205718093	0.066781907
664.92	0.26934	0.205715757	0.063624243
664.96	0.26868	0.20571342	0.06296658
665	0.26863	0.205711084	0.062918916
665.04	0.27713	0.205708748	0.071421252
665.08	0.28192	0.205706411	0.076213589
665.12	0.28187	0.205704075	0.076165925
665.16	0.26654	0.205701738	0.060838262
665.2	0.26308	0.205699402	0.057380598
665.24	0.27795	0.205697066	0.072252934
665.28	0.26206	0.205694729	0.056365271
665.32	0.26201	0.205692393	0.056317607
665.36	0.26939	0.205690056	0.063699944
665.4	0.2614	0.20568772	0.05571228
665.44	0.26125	0.205685383	0.055564617
665.48	0.27428	0.205683047	0.068596953
665.52	0.27784	0.205680711	0.072159289
665.56	0.27148	0.205678374	0.065801626
665.6	0.27428	0.205676038	0.068603962
665.64	0.27545	0.205673701	0.069776299
665.68	0.26125	0.205671365	0.055578635
665.72	0.26125	0.205669029	0.055580971
665.76	0.27123	0.205666692	0.065563308
665.8	0.27423	0.205664356	0.068565644
665.84	0.27387	0.205662019	0.068207981
665.88	0.2668	0.205659683	0.061140317
665.92	0.27306	0.205657346	0.067402654
665.96	0.28375	0.20565501	0.07809499
666	0.26369	0.205652674	0.058037326
666.04	0.26201	0.205650337	0.056359663
666.08	0.27525	0.205648001	0.069601999
666.12	0.2585	0.205645664	0.052854336
666.16	0.26695	0.205643328	0.061306672
666.2	0.26374	0.205640992	0.058099008
666.24	0.27413	0.205638655	0.068491345
666.28	0.26201	0.205636319	0.056373681
666.32	0.26221	0.205633982	0.056576018
666.36	0.26583	0.205631646	0.060198354
666.4	0.27397	0.205629309	0.068340691
666.44	0.26944	0.205626973	0.063813027
666.48	0.2584	0.205624637	0.052775363
666.52	0.25239	0.2056223	0.0467677
666.56	0.26114	0.205619964	0.055520036
666.6	0.26094	0.205617627	0.055322373
666.64	0.25845	0.205615291	0.052834709
666.68	0.25142	0.205612955	0.045807045
666.72	0.25936	0.205610618	0.053749382
666.76	0.24974	0.205608282	0.044131718
666.8	0.25926	0.205605945	0.053654055
666.84	0.25503	0.205603609	0.049426391
666.88	0.24791	0.205601272	0.042308728
666.92	0.24811	0.205598936	0.042511064
666.96	0.24307	0.2055966	0.0374734
667	0.23762	0.205594263	0.032025737
667.04	0.2365	0.205591927	0.030908073
667.08	0.25346	0.20558959	0.04787041
667.12	0.23228	0.205587254	0.026692746
667.16	0.22724	0.205584918	0.021655082
667.2	0.22708	0.205582581	0.021497419
667.24	0.23258	0.205580245	0.026999755
667.28	0.22225	0.205577908	0.016672092
667.32	0.2278	0.205575572	0.022224428
667.36	0.22886	0.205573235	0.023286765
667.4	0.2365	0.205570899	0.030929101
667.44	0.23004	0.205568563	0.024471437
667.48	0.23009	0.205566226	0.024523774
667.52	0.22703	0.20556389	0.02146611
667.56	0.22428	0.205561553	0.018718447
667.6	0.22902	0.205559217	0.023460783
667.64	0.22647	0.205556881	0.020913119
667.68	0.22214	0.205554544	0.016585456
667.72	0.228	0.205552208	0.022447792
667.76	0.22352	0.205549871	0.017970129
667.8	0.22342	0.205547535	0.017872465
667.84	0.21955	0.205545198	0.014004802
667.88	0.23289	0.205542862	0.027347138
667.92	0.23844	0.205540526	0.032899474
667.96	0.22357	0.205538189	0.018031811
668	0.2224	0.205535853	0.016864147
668.04	0.2282	0.205533516	0.022666484
668.08	0.22825	0.20553118	0.02271882
668.12	0.22148	0.205528844	0.015951156
668.16	0.23294	0.205526507	0.027413493
668.2	0.22164	0.205524171	0.016115829
668.24	0.21201	0.205521834	0.006488166
668.28	0.2196	0.205519498	0.014080502
668.32	0.2223	0.205517161	0.016782839
668.36	0.21965	0.205514825	0.014135175
668.4	0.2198	0.205512489	0.014287511
668.44	0.22148	0.205510152	0.015969848
668.48	0.21985	0.205507816	0.014342184
668.52	0.2197	0.205505479	0.014194521
668.56	0.21247	0.205503143	0.006966857
668.6	0.21415	0.205500807	0.008649193
668.64	0.2114	0.20549847	0.00590153
668.68	0.21135	0.205496134	0.005853866
668.72	0.21125	0.205493797	0.005756203
668.76	0.21583	0.205491461	0.010338539
668.8	0.2167	0.205489124	0.011210876
668.84	0.2197	0.205486788	0.014213212
668.88	0.22052	0.205484452	0.015035548
668.92	0.2139	0.205482115	0.008417885
668.96	0.21385	0.205479779	0.008370221
669	0.22352	0.205477442	0.018042558
669.04	0.21665	0.205475106	0.011174894
669.08	0.20855	0.20547277	0.00307723
669.12	0.21512	0.205470433	0.009649567
669.16	0.20916	0.205468097	0.003691903
669.2	0.21486	0.20546576	0.00939424
669.24	0.21191	0.205463424	0.006446576
669.28	0.21211	0.205461087	0.006648913
669.32	0.2167	0.205458751	0.011241249
669.36	0.21196	0.205456415	0.006503585
669.4	0.21782	0.205454078	0.012365922
669.44	0.22128	0.205451742	0.015828258
669.48	0.21283	0.205449405	0.007380595
669.52	0.22143	0.205447069	0.015982931
669.56	0.22158	0.205444733	0.016135267
669.6	0.20555	0.205442396	0.000107604
669.64	0.19709	0.20544006	-0.00835006
669.68	0.21217	0.205437723	0.006732277
669.72	0.22235	0.205435387	0.016914613
669.76	0.21079	0.20543305	0.00535695
669.8	0.2169	0.205430714	0.011469286
669.84	0.21486	0.205428378	0.009431622
669.88	0.21476	0.205426041	0.009333959
669.92	0.20936	0.205423705	0.003936295
669.96	0.2027	0.205421368	-0.002721368
670	0.21603	0.205419032	0.010610968
670.04	0.21018	0.205416696	0.004763304
670.08	0.20631	0.205414359	0.000895641
670.12	0.20819	0.205412023	0.002777977
670.16	0.2083	0.205409686	0.002890314
670.2	0.21181	0.20540735	0.00640265
670.24	0.20891	0.205405014	0.003504986
670.28	0.22052	0.205402677	0.015117323
670.32	0.20458	0.205400341	-0.000820341
670.36	0.21181	0.205398004	0.006411996
670.4	0.2056	0.205395668	0.000204332
670.44	0.2055	0.205393331	0.000106669
670.48	0.20814	0.205390995	0.002749005
670.52	0.2084	0.205388659	0.003011341
670.56	0.21568	0.205386322	0.010293678
670.6	0.20819	0.205383986	0.002806014
670.64	0.19918	0.205381649	-0.006201649
670.68	0.2171	0.205379313	0.011720687
670.72	0.20768	0.205376977	0.002303023
670.76	0.20728	0.20537464	0.00190536
670.8	0.20239	0.205372304	-0.002982304
670.84	0.20443	0.205369967	-0.000939967
670.88	0.20926	0.205367631	0.003892369
670.92	0.20336	0.205365294	-0.002005294
670.96	0.20611	0.205362958	0.000747042
671	0.20555	0.205360622	0.000189378
671.04	0.2057	0.205358285	0.000341715
671.08	0.20712	0.205355949	0.001764051
671.12	0.20382	0.205353612	-0.001533612
671.16	0.20631	0.205351276	0.000958724
671.2	0.21298	0.20534894	0.00763106
671.24	0.20341	0.205346603	-0.001936603
671.28	0.20931	0.205344267	0.003965733
671.32	0.20901	0.20534193	0.00366807
671.36	0.20438	0.205339594	-0.000959594
671.4	0.20453	0.205337257	-0.000807257
671.44	0.20168	0.205334921	-0.003654921
671.48	0.20438	0.205332585	-0.000952585
671.52	0.21018	0.205330248	0.004849752
671.56	0.19786	0.205327912	-0.007467912
671.6	0.2083	0.205325575	0.002974425
671.64	0.20819	0.205323239	0.002866761
671.68	0.20458	0.205320903	-0.000740903
671.72	0.2111	0.205318566	0.005781434
671.76	0.19409	0.20531623	-0.01122623
671.8	0.20555	0.205313893	0.000236107
671.84	0.20432	0.205311557	-0.000991557
671.88	0.21003	0.20530922	0.00472078
671.92	0.21018	0.205306884	0.004873116
671.96	0.20086	0.205304548	-0.004444548
672	0.2057	0.205302211	0.000397789
672.04	0.20178	0.205299875	-0.003519875
672.08	0.19531	0.205297538	-0.009987538
672.12	0.19317	0.205295202	-0.012125202
672.16	0.20891	0.205292866	0.003617134
672.2	0.2083	0.205290529	0.003009471
672.24	0.20819	0.205288193	0.002901807
672.28	0.20163	0.205285856	-0.003655856
672.32	0.20081	0.20528352	-0.00447352
672.36	0.19862	0.205281183	-0.006661183
672.4	0.19496	0.205278847	-0.010318847
672.44	0.19898	0.205276511	-0.006296511
672.48	0.19913	0.205274174	-0.006144174
672.52	0.19852	0.205271838	-0.006751838
672.56	0.20173	0.205269501	-0.003539501
672.6	0.19328	0.205267165	-0.011987165
672.64	0.19974	0.205264829	-0.005524829
672.68	0.20091	0.205262492	-0.004352492
672.72	0.20005	0.205260156	-0.005210156
672.76	0.2	0.205257819	-0.005257819
672.8	0.19989	0.205255483	-0.005365483
672.84	0.20336	0.205253146	-0.001893146
672.88	0.20555	0.20525081	0.00029919
672.92	0.20448	0.205248474	-0.000768474
672.96	0.19995	0.205246137	-0.005296137
673	0.19414	0.205243801	-0.011103801
673.04	0.20636	0.205241464	0.001118536
673.08	0.20361	0.205239128	-0.001629128
673.12	0.20376	0.205236792	-0.001476792
673.16	0.19536	0.205234455	-0.009874455
673.2	0.19236	0.205232119	-0.012872119
673.24	0.20458	0.205229782	-0.000649782
673.28	0.20234	0.205227446	-0.002887446
673.32	0.19526	0.205225109	-0.009965109
673.36	0.20453	0.205222773	-0.000692773
673.4	0.20458	0.205220437	-0.000640437
673.44	0.19618	0.2052181	-0.0090381
673.48	0.19984	0.205215764	-0.005375764
673.52	0.19623	0.205213427	-0.008983427
673.56	0.20208	0.205211091	-0.003131091
673.6	0.1972	0.205208755	-0.008008755
673.64	0.19816	0.205206418	-0.007046418
673.68	0.20178	0.205204082	-0.003424082
673.72	0.20188	0.205201745	-0.003321745
673.76	0.2001	0.205199409	-0.005099409
673.8	0.19144	0.205197072	-0.013757072
673.84	0.20916	0.205194736	0.003965264
673.88	0.19704	0.2051924	-0.0081524
673.92	0.19608	0.205190063	-0.009110063
673.96	0.19511	0.205187727	-0.010077727
674	0.19536	0.20518539	-0.00982539
674.04	0.19221	0.205183054	-0.012973054
674.08	0.19043	0.205180718	-0.014750718
674.12	0.19526	0.205178381	-0.009918381
674.16	0.19149	0.205176045	-0.013686045
674.2	0.19689	0.205173708	-0.008283708
674.24	0.19745	0.205171372	-0.007721372
674.28	0.19699	0.205169035	-0.008179035
674.32	0.19343	0.205166699	-0.011736699
674.36	0.19032	0.205164363	-0.014844363
674.4	0.19709	0.205162026	-0.008072026
674.44	0.19058	0.20515969	-0.01457969
674.48	0.20651	0.205157353	0.001352647
674.52	0.20183	0.205155017	-0.003325017
674.56	0.19699	0.205152681	-0.008162681
674.6	0.19709	0.205150344	-0.008060344
674.64	0.19618	0.205148008	-0.008968008
674.68	0.18732	0.205145671	-0.017825671
674.72	0.19903	0.205143335	-0.006113335
674.76	0.18498	0.205140998	-0.020160998
674.8	0.19424	0.205138662	-0.010898662
674.84	0.19984	0.205136326	-0.005296326
674.88	0.19979	0.205133989	-0.005343989
674.92	0.18844	0.205131653	-0.016691653
674.96	0.19129	0.205129316	-0.013839316