	m	t	
f	1.02719E-08	0.0978535	
			
			
X in nm	Y Signal 	f	y-f
560.04	0.0941	0.097859253	-0.003759253
560.08	0.09496	0.097859253	-0.002899253
560.12	0.09517	0.097859253	-0.002689253
560.16	0.09506	0.097859254	-0.002799254
560.2	0.09517	0.097859254	-0.002689254
560.24	0.10071	0.097859255	0.002850745
560.28	0.09613	0.097859255	-0.001729255
560.32	0.09909	0.097859256	0.001230744
560.36	0.0969	0.097859256	-0.000959256
560.4	0.09715	0.097859256	-0.000709256
560.44	0.09623	0.097859257	-0.001629257
560.48	0.09863	0.097859257	0.000770743
560.52	0.10005	0.097859258	0.002190742
560.56	0.09898	0.097859258	0.001120742
560.6	0.09812	0.097859258	0.000260742
560.64	0.10178	0.097859259	0.003920741
560.68	0.09781	0.097859259	-4.92592E-05
560.72	0.09812	0.09785926	0.00026074
560.76	0.09593	0.09785926	-0.00192926
560.8	0.09511	0.09785926	-0.00274926
560.84	0.0969	0.097859261	-0.000959261
560.88	0.09527	0.097859261	-0.002589261
560.92	0.09618	0.097859262	-0.001679262
560.96	0.09893	0.097859262	0.001070738
561	0.09914	0.097859263	0.001280737
561.04	0.10275	0.097859263	0.004890737
561.08	0.1	0.097859263	0.002140737
561.12	0.09532	0.097859264	-0.002539264
561.16	0.09155	0.097859264	-0.006309264
561.2	0.09883	0.097859265	0.000970735
561.24	0.09593	0.097859265	-0.001929265
561.28	0.09608	0.097859265	-0.001779265
561.32	0.09603	0.097859266	-0.001829266
561.36	0.10168	0.097859266	0.003820734
561.4	0.097	0.097859267	-0.000859267
561.44	0.09817	0.097859267	0.000310733
561.48	0.09634	0.097859267	-0.001519267
561.52	0.0941	0.097859268	-0.003759268
561.56	0.097	0.097859268	-0.000859268
561.6	0.09705	0.097859269	-0.000809269
561.64	0.09491	0.097859269	-0.002949269
561.68	0.1026	0.09785927	0.00474073
561.72	0.09333	0.09785927	-0.00452927
561.76	0.10097	0.09785927	0.00311073
561.8	0.097	0.097859271	-0.000859271
561.84	0.09496	0.097859271	-0.002899271
561.88	0.09496	0.097859272	-0.002899272
561.92	0.09323	0.097859272	-0.004629272
561.96	0.10005	0.097859272	0.002190728
562	0.09893	0.097859273	0.001070727
562.04	0.09903	0.097859273	0.001170727
562.08	0.10087	0.097859274	0.003010726
562.12	0.09975	0.097859274	0.001890726
562.16	0.10015	0.097859274	0.002290726
562.2	0.09995	0.097859275	0.002090725
562.24	0.10158	0.097859275	0.003720725
562.28	0.09985	0.097859276	0.001990724
562.32	0.09623	0.097859276	-0.001629276
562.36	0.09425	0.097859277	-0.003609277
562.4	0.09313	0.097859277	-0.004729277
562.44	0.10097	0.097859277	0.003110723
562.48	0.10092	0.097859278	0.003060722
562.52	0.09323	0.097859278	-0.004629278
562.56	0.09725	0.097859279	-0.000609279
562.6	0.09348	0.097859279	-0.004379279
562.64	0.09812	0.097859279	0.000260721
562.68	0.09613	0.09785928	-0.00172928
562.72	0.09308	0.09785928	-0.00477928
562.76	0.09985	0.097859281	0.001990719
562.8	0.09985	0.097859281	0.001990719
562.84	0.09618	0.097859281	-0.001679281
562.88	0.09797	0.097859282	0.000110718
562.92	0.09868	0.097859282	0.000820718
562.96	0.10189	0.097859283	0.004030717
563	0.09822	0.097859283	0.000360717
563.04	0.09415	0.097859283	-0.003709283
563.08	0.09415	0.097859284	-0.003709284
563.12	0.09919	0.097859284	0.001330716
563.16	0.10071	0.097859285	0.002850715
563.2	0.09817	0.097859285	0.000310715
563.24	0.09715	0.097859286	-0.000709286
563.28	0.097	0.097859286	-0.000859286
563.32	0.10071	0.097859286	0.002850714
563.36	0.10056	0.097859287	0.002700713
563.4	0.09725	0.097859287	-0.000609287
563.44	0.0971	0.097859288	-0.000759288
563.48	0.10295	0.097859288	0.005090712
563.52	0.09323	0.097859288	-0.004629288
563.56	0.09613	0.097859289	-0.001729289
563.6	0.0998	0.097859289	0.001940711
563.64	0.09715	0.09785929	-0.00070929
563.68	0.09695	0.09785929	-0.00090929
563.72	0.09506	0.09785929	-0.00279929
563.76	0.09903	0.097859291	0.001170709
563.8	0.09588	0.097859291	-0.001979291
563.84	0.0914	0.097859292	-0.006459292
563.88	0.0943	0.097859292	-0.003559292
563.92	0.097	0.097859293	-0.000859293
563.96	0.0969	0.097859293	-0.000959293
564	0.09522	0.097859293	-0.002639293
564.04	0.10194	0.097859294	0.004080706
564.08	0.09903	0.097859294	0.001170706
564.12	0.10071	0.097859295	0.002850705
564.16	0.0971	0.097859295	-0.000759295
564.2	0.10275	0.097859295	0.004890705
564.24	0.10255	0.097859296	0.004690704
564.28	0.10107	0.097859296	0.003210704
564.32	0.10428	0.097859297	0.006420703
564.36	0.1055	0.097859297	0.007640703
564.4	0.10637	0.097859297	0.008510703
564.44	0.10815	0.097859298	0.010290702
564.48	0.1139	0.097859298	0.016040702
564.52	0.11115	0.097859299	0.013290701
564.56	0.1111	0.097859299	0.013240701
564.6	0.11945	0.0978593	0.0215907
564.64	0.12077	0.0978593	0.0229107
564.68	0.11691	0.0978593	0.0190507
564.72	0.11787	0.097859301	0.020010699
564.76	0.1168	0.097859301	0.018940699
564.8	0.11853	0.097859302	0.020670698
564.84	0.11869	0.097859302	0.020830698
564.88	0.12347	0.097859302	0.025610698
564.92	0.12505	0.097859303	0.027190697
564.96	0.12709	0.097859303	0.029230697
565	0.13086	0.097859304	0.033000696
565.04	0.1303	0.097859304	0.032440696
565.08	0.14134	0.097859304	0.043480696
565.12	0.13417	0.097859305	0.036310695
565.16	0.13371	0.097859305	0.035850695
565.2	0.14603	0.097859306	0.048170694
565.24	0.13294	0.097859306	0.035080694
565.28	0.13834	0.097859306	0.040480694
565.32	0.13773	0.097859307	0.039870693
565.36	0.14333	0.097859307	0.045470693
565.4	0.13936	0.097859308	0.041500692
565.44	0.13951	0.097859308	0.041650692
565.48	0.14353	0.097859309	0.045670691
565.52	0.13508	0.097859309	0.037220691
565.56	0.13116	0.097859309	0.033300691
565.6	0.13778	0.09785931	0.03992069
565.64	0.13753	0.09785931	0.03967069
565.68	0.13554	0.097859311	0.037680689
565.72	0.13564	0.097859311	0.037780689
565.76	0.13116	0.097859311	0.033300689
565.8	0.13386	0.097859312	0.036000688
565.84	0.13284	0.097859312	0.034980688
565.88	0.13289	0.097859313	0.035030687
565.92	0.12902	0.097859313	0.031160687
565.96	0.13014	0.097859313	0.032280687
566	0.12643	0.097859314	0.028570686
566.04	0.12648	0.097859314	0.028620686
566.08	0.1251	0.097859315	0.027240685
566.12	0.12261	0.097859315	0.024750685
566.16	0.11986	0.097859316	0.022000684
566.2	0.11629	0.097859316	0.018430684
566.24	0.11609	0.097859316	0.018230684
566.28	0.11696	0.097859317	0.019100683
566.32	0.11665	0.097859317	0.018790683
566.36	0.11024	0.097859318	0.012380682
566.4	0.10637	0.097859318	0.008510682
566.44	0.10204	0.097859318	0.004180682
566.48	0.10367	0.097859319	0.005810681
566.52	0.10178	0.097859319	0.003920681
566.56	0.10733	0.09785932	0.00947068
566.6	0.10637	0.09785932	0.00851068
566.64	0.10265	0.09785932	0.00479068
566.68	0.11125	0.097859321	0.013390679
566.72	0.10728	0.097859321	0.009420679
566.76	0.10372	0.097859322	0.005860678
566.8	0.1027	0.097859322	0.004840678
566.84	0.10173	0.097859323	0.003870677
566.88	0.10275	0.097859323	0.004890677
566.92	0.10285	0.097859323	0.004990677
566.96	0.10194	0.097859324	0.004080676
567	0.10158	0.097859324	0.003720676
567.04	0.09975	0.097859325	0.001890675
567.08	0.09522	0.097859325	-0.002639325
567.12	0.09211	0.097859325	-0.005749325
567.16	0.09618	0.097859326	-0.001679326
567.2	0.09613	0.097859326	-0.001729326
567.24	0.09898	0.097859327	0.001120673
567.28	0.09797	0.097859327	0.000110673
567.32	0.10372	0.097859327	0.005860673
567.36	0.09216	0.097859328	-0.005699328
567.4	0.09618	0.097859328	-0.001679328
567.44	0.09791	0.097859329	5.06713E-05
567.48	0.10183	0.097859329	0.003970671
567.52	0.10194	0.09785933	0.00408067
567.56	0.10392	0.09785933	0.00606067
567.6	0.10275	0.09785933	0.00489067
567.64	0.10621	0.097859331	0.008350669
567.68	0.1055	0.097859331	0.007640669
567.72	0.11207	0.097859332	0.014210668
567.76	0.11212	0.097859332	0.014260668
567.8	0.11217	0.097859332	0.014310668
567.84	0.11222	0.097859333	0.014360667
567.88	0.11431	0.097859333	0.016450667
567.92	0.11304	0.097859334	0.015180666
567.96	0.10652	0.097859334	0.008660666
568	0.11599	0.097859334	0.018130666
568.04	0.11797	0.097859335	0.020110665
568.08	0.11782	0.097859335	0.019960665
568.12	0.114	0.097859336	0.016140664
568.16	0.11691	0.097859336	0.019050664
568.2	0.13091	0.097859336	0.033050664
568.24	0.12918	0.097859337	0.031320663
568.28	0.13024	0.097859337	0.032380663
568.32	0.12724	0.097859338	0.029380662
568.36	0.12933	0.097859338	0.031470662
568.4	0.12928	0.097859339	0.031420661
568.44	0.13116	0.097859339	0.033300661
568.48	0.13666	0.097859339	0.038800661
568.52	0.12816	0.09785934	0.03030066
568.56	0.13177	0.09785934	0.03391066
568.6	0.13661	0.097859341	0.038750659
568.64	0.13865	0.097859341	0.040790659
568.68	0.13849	0.097859341	0.040630659
568.72	0.13203	0.097859342	0.034170658
568.76	0.12663	0.097859342	0.028770658
568.8	0.13946	0.097859343	0.041600657
568.84	0.13758	0.097859343	0.039720657
568.88	0.13371	0.097859343	0.035850657
568.92	0.12836	0.097859344	0.030500656
568.96	0.12841	0.097859344	0.030550656
569	0.12831	0.097859345	0.030450655
569.04	0.12923	0.097859345	0.031370655
569.08	0.12617	0.097859346	0.028310654
569.12	0.12332	0.097859346	0.025460654
569.16	0.11421	0.097859346	0.016350654
569.2	0.114	0.097859347	0.016140653
569.24	0.11492	0.097859347	0.017060653
569.28	0.11497	0.097859348	0.017110652
569.32	0.11034	0.097859348	0.012480652
569.36	0.11125	0.097859348	0.013390652
569.4	0.11298	0.097859349	0.015120651
569.44	0.11029	0.097859349	0.012430651
569.48	0.11217	0.09785935	0.01431065
569.52	0.1054	0.09785935	0.00754065
569.56	0.10586	0.09785935	0.00800065
569.6	0.09975	0.097859351	0.001890649
569.64	0.10835	0.097859351	0.010490649
569.68	0.10189	0.097859352	0.004030648
569.72	0.0998	0.097859352	0.001940648
569.76	0.09812	0.097859353	0.000260647
569.8	0.0969	0.097859353	-0.000959353
569.84	0.09634	0.097859353	-0.001519353
569.88	0.09613	0.097859354	-0.001729354
569.92	0.0942	0.097859354	-0.003659354
569.96	0.09995	0.097859355	0.002090645
570	0.09797	0.097859355	0.000110645
570.04	0.09705	0.097859355	-0.000809355
570.08	0.09817	0.097859356	0.000310644
570.12	0.09883	0.097859356	0.000970644
570.16	0.09919	0.097859357	0.001330643
570.2	0.0944	0.097859357	-0.003459357
570.24	0.09048	0.097859357	-0.007379357
570.28	0.09511	0.097859358	-0.002749358
570.32	0.09898	0.097859358	0.001120642
570.36	0.10275	0.097859359	0.004890641
570.4	0.09878	0.097859359	0.000920641
570.44	0.09883	0.09785936	0.00097064
570.48	0.09608	0.09785936	-0.00177936
570.52	0.09608	0.09785936	-0.00177936
570.56	0.09898	0.097859361	0.001120639
570.6	0.1001	0.097859361	0.002240639
570.64	0.1	0.097859362	0.002140638
570.68	0.10662	0.097859362	0.008760638
570.72	0.09893	0.097859362	0.001070638
570.76	0.09909	0.097859363	0.001230637
570.8	0.1028	0.097859363	0.004940637
570.84	0.10484	0.097859364	0.006980636
570.88	0.10087	0.097859364	0.003010636
570.92	0.10565	0.097859364	0.007790636
570.96	0.10474	0.097859365	0.006880635
571	0.10744	0.097859365	0.009580635
571.04	0.10764	0.097859366	0.009780634
571.08	0.10652	0.097859366	0.008660634
571.12	0.10458	0.097859366	0.006720634
571.16	0.11293	0.097859367	0.015070633
571.2	0.10754	0.097859367	0.009680633
571.24	0.10835	0.097859368	0.010490632
571.28	0.10367	0.097859368	0.005810632
571.32	0.1113	0.097859369	0.013440631
571.36	0.11105	0.097859369	0.013190631
571.4	0.10448	0.097859369	0.006620631
571.44	0.11405	0.09785937	0.01619063
571.48	0.10642	0.09785937	0.00856063
571.52	0.11202	0.097859371	0.014160629
571.56	0.11324	0.097859371	0.015380629
571.6	0.11492	0.097859371	0.017060629
571.64	0.11533	0.097859372	0.017470628
571.68	0.11339	0.097859372	0.015530628
571.72	0.10662	0.097859373	0.008760627
571.76	0.10545	0.097859373	0.007590627
571.8	0.10927	0.097859373	0.011410627
571.84	0.10458	0.097859374	0.006720626
571.88	0.10199	0.097859374	0.004130626
571.92	0.10199	0.097859375	0.004130625
571.96	0.10448	0.097859375	0.006620625
572	0.11013	0.097859376	0.012270624
572.04	0.10662	0.097859376	0.008760624
572.08	0.10178	0.097859376	0.003920624
572.12	0.1027	0.097859377	0.004840623
572.16	0.10168	0.097859377	0.003820623
572.2	0.10107	0.097859378	0.003210622
572.24	0.10107	0.097859378	0.003210622
572.28	0.10005	0.097859378	0.002190622
572.32	0.10469	0.097859379	0.006830621
572.36	0.09527	0.097859379	-0.002589379
572.4	0.1026	0.09785938	0.00474062
572.44	0.0973	0.09785938	-0.00055938
572.48	0.10362	0.09785938	0.00576062
572.52	0.10377	0.097859381	0.005910619
572.56	0.09985	0.097859381	0.001990619
572.6	0.09995	0.097859382	0.002090618
572.64	0.10005	0.097859382	0.002190618
572.68	0.09058	0.097859383	-0.007279383
572.72	0.10178	0.097859383	0.003920617
572.76	0.09236	0.097859383	-0.005499383
572.8	0.09593	0.097859384	-0.001929384
572.84	0.09598	0.097859384	-0.001879384
572.88	0.09898	0.097859385	0.001120615
572.92	0.09898	0.097859385	0.001120615
572.96	0.09348	0.097859385	-0.004379385
573	0.10255	0.097859386	0.004690614
573.04	0.09786	0.097859386	6.1379E-07
573.08	0.09603	0.097859387	-0.001829387
573.12	0.09629	0.097859387	-0.001569387
573.16	0.0942	0.097859387	-0.003659387
573.2	0.09705	0.097859388	-0.000809388
573.24	0.09236	0.097859388	-0.005499388
573.28	0.09674	0.097859389	-0.001119389
573.32	0.10153	0.097859389	0.003670611
573.36	0.10555	0.097859389	0.007690611
573.4	0.10555	0.09785939	0.00769061
573.44	0.09812	0.09785939	0.00026061
573.48	0.09893	0.097859391	0.001070609
573.52	0.10301	0.097859391	0.005150609
573.56	0.09893	0.097859392	0.001070608
573.6	0.09812	0.097859392	0.000260608
573.64	0.10662	0.097859392	0.008760608
573.68	0.10367	0.097859393	0.005810607
573.72	0.10346	0.097859393	0.005600607
573.76	0.10835	0.097859394	0.010490606
573.8	0.11293	0.097859394	0.015070606
573.84	0.10927	0.097859394	0.011410606
573.88	0.10723	0.097859395	0.009370605
573.92	0.11008	0.097859395	0.012220605
573.96	0.1112	0.097859396	0.013340604
574	0.1112	0.097859396	0.013340604
574.04	0.1139	0.097859396	0.016040604
574.08	0.11655	0.097859397	0.018690603
574.12	0.11767	0.097859397	0.019810603
574.16	0.11853	0.097859398	0.020670602
574.2	0.11304	0.097859398	0.015180602
574.24	0.12734	0.097859399	0.029480601
574.28	0.12734	0.097859399	0.029480601
574.32	0.11421	0.097859399	0.016350601
574.36	0.12454	0.0978594	0.0266806
574.4	0.12627	0.0978594	0.0284106
574.44	0.12826	0.097859401	0.030400599
574.48	0.12719	0.097859401	0.029330599
574.52	0.12159	0.097859401	0.023730599
574.56	0.12643	0.097859402	0.028570598
574.6	0.12632	0.097859402	0.028460598
574.64	0.12734	0.097859403	0.029480597
574.68	0.12536	0.097859403	0.027500597
574.72	0.12816	0.097859403	0.030300597
574.76	0.11864	0.097859404	0.020780596
574.8	0.12363	0.097859404	0.025770596
574.84	0.11889	0.097859405	0.021030595
574.88	0.11869	0.097859405	0.020830595
574.92	0.12251	0.097859406	0.024650594
574.96	0.12276	0.097859406	0.024900594
575	0.12897	0.097859406	0.031110594
575.04	0.12169	0.097859407	0.023830593
575.08	0.12154	0.097859407	0.023680593
575.12	0.12144	0.097859408	0.023580592
575.16	0.13361	0.097859408	0.035750592
575.2	0.13391	0.097859408	0.036050592
575.24	0.12882	0.097859409	0.030960591
575.28	0.13691	0.097859409	0.039050591
575.32	0.13747	0.09785941	0.03961059
575.36	0.1387	0.09785941	0.04084059
575.4	0.13941	0.09785941	0.04155059
575.44	0.14313	0.097859411	0.045270589
575.48	0.14348	0.097859411	0.045620589
575.52	0.13875	0.097859412	0.040890588
575.56	0.14435	0.097859412	0.046490588
575.6	0.14435	0.097859413	0.046490587
575.64	0.15555	0.097859413	0.057690587
575.68	0.1527	0.097859413	0.054840587
575.72	0.1584	0.097859414	0.060540586
575.76	0.1583	0.097859414	0.060440586
575.8	0.15952	0.097859415	0.061660585
575.84	0.1612	0.097859415	0.063340585
575.88	0.16405	0.097859415	0.066190585
575.92	0.16858	0.097859416	0.070720584
575.96	0.16868	0.097859416	0.070820584
576	0.17067	0.097859417	0.072810583
576.04	0.18009	0.097859417	0.082230583
576.08	0.18024	0.097859417	0.082380583
576.12	0.17933	0.097859418	0.081470582
576.16	0.17617	0.097859418	0.078310582
576.2	0.1694	0.097859419	0.071540581
576.24	0.17042	0.097859419	0.072560581
576.28	0.17245	0.097859419	0.074590581
576.32	0.16431	0.09785942	0.06645058
576.36	0.1641	0.09785942	0.06624058
576.4	0.16385	0.097859421	0.065990579
576.44	0.16018	0.097859421	0.062320579
576.48	0.15942	0.097859422	0.061560578
576.52	0.15932	0.097859422	0.061460578
576.56	0.15076	0.097859422	0.052900578
576.6	0.14511	0.097859423	0.047250577
576.64	0.14435	0.097859423	0.046490577
576.68	0.1442	0.097859424	0.046340576
576.72	0.14323	0.097859424	0.045370576
576.76	0.13859	0.097859424	0.040730576
576.8	0.13844	0.097859425	0.040580575
576.84	0.12337	0.097859425	0.025510575
576.88	0.11991	0.097859426	0.022050574
576.92	0.11884	0.097859426	0.020980574
576.96	0.11889	0.097859426	0.021030574
577	0.12261	0.097859427	0.024750573
577.04	0.11996	0.097859427	0.022100573
577.08	0.11879	0.097859428	0.020930572
577.12	0.10372	0.097859428	0.005860572
577.16	0.10255	0.097859429	0.004690571
577.2	0.10545	0.097859429	0.007590571
577.24	0.10555	0.097859429	0.007690571
577.28	0.10382	0.09785943	0.00596057
577.32	0.10214	0.09785943	0.00428057
577.36	0.09425	0.097859431	-0.003609431
577.4	0.10005	0.097859431	0.002190569
577.44	0.09812	0.097859431	0.000260569
577.48	0.0999	0.097859432	0.002040568
577.52	0.09791	0.097859432	5.05678E-05
577.56	0.09812	0.097859433	0.000260567
577.6	0.09797	0.097859433	0.000110567
577.64	0.10077	0.097859433	0.002910567
577.68	0.09878	0.097859434	0.000920566
577.72	0.09338	0.097859434	-0.004479434
577.76	0.09898	0.097859435	0.001120565
577.8	0.10077	0.097859435	0.002910565
577.84	0.10097	0.097859436	0.003110564
577.88	0.09725	0.097859436	-0.000609436
577.92	0.09827	0.097859436	0.000410564
577.96	0.10295	0.097859437	0.005090563
578	0.09623	0.097859437	-0.001629437
578.04	0.10087	0.097859438	0.003010562
578.08	0.09715	0.097859438	-0.000709438
578.12	0.0971	0.097859438	-0.000759438
578.16	0.0943	0.097859439	-0.003559439
578.2	0.09338	0.097859439	-0.004479439
578.24	0.09995	0.09785944	0.00209056
578.28	0.09807	0.09785944	0.00021056
578.32	0.09817	0.09785944	0.00031056
578.36	0.09817	0.097859441	0.000310559
578.4	0.10087	0.097859441	0.003010559
578.44	0.10077	0.097859442	0.002910558
578.48	0.09522	0.097859442	-0.002639442
578.52	0.09629	0.097859442	-0.001569442
578.56	0.09893	0.097859443	0.001070557
578.6	0.09771	0.097859443	-0.000149443
578.64	0.09552	0.097859444	-0.002339444
578.68	0.09817	0.097859444	0.000310556
578.72	0.09797	0.097859445	0.000110555
578.76	0.10275	0.097859445	0.004890555
578.8	0.0969	0.097859445	-0.000959445
578.84	0.10183	0.097859446	0.003970554
578.88	0.09216	0.097859446	-0.005699446
578.92	0.10163	0.097859447	0.003770553
578.96	0.09883	0.097859447	0.000970553
579	0.09705	0.097859447	-0.000809447
579.04	0.09715	0.097859448	-0.000709448
579.08	0.10372	0.097859448	0.005860552
579.12	0.09883	0.097859449	0.000970551
579.16	0.10372	0.097859449	0.005860551
579.2	0.11018	0.097859449	0.012320551
579.24	0.10178	0.09785945	0.00392055
579.28	0.10458	0.09785945	0.00672055
579.32	0.10469	0.097859451	0.006830549
579.36	0.10647	0.097859451	0.008610549
579.4	0.10667	0.097859452	0.008810548
579.44	0.10998	0.097859452	0.012120548
579.48	0.11314	0.097859452	0.015280548
579.52	0.10815	0.097859453	0.010290547
579.56	0.1139	0.097859453	0.016040547
579.6	0.11421	0.097859454	0.016350546
579.64	0.10657	0.097859454	0.008710546
579.68	0.1082	0.097859454	0.010340546
579.72	0.11405	0.097859455	0.016190545
579.76	0.11395	0.097859455	0.016090545
579.8	0.11207	0.097859456	0.014210544
579.84	0.11411	0.097859456	0.016250544
579.88	0.11492	0.097859456	0.017060544
579.92	0.11492	0.097859457	0.017060543
579.96	0.11589	0.097859457	0.018030543
580	0.11512	0.097859458	0.017260542
580.04	0.12352	0.097859458	0.025660542
580.08	0.1168	0.097859459	0.018940541
580.12	0.11981	0.097859459	0.021950541
580.16	0.11579	0.097859459	0.017930541
580.2	0.11604	0.09785946	0.01818054
580.24	0.1139	0.09785946	0.01604054
580.28	0.12235	0.097859461	0.024490539
580.32	0.11579	0.097859461	0.017930539
580.36	0.11772	0.097859461	0.019860539
580.4	0.11787	0.097859462	0.020010538
580.44	0.11701	0.097859462	0.019150538
580.48	0.12286	0.097859463	0.025000537
580.52	0.1223	0.097859463	0.024440537
580.56	0.12067	0.097859463	0.022810537
580.6	0.12373	0.097859464	0.025870536
580.64	0.1224	0.097859464	0.024540536
580.68	0.13243	0.097859465	0.034570535
580.72	0.12887	0.097859465	0.031010535
580.76	0.13014	0.097859466	0.032280534
580.8	0.1303	0.097859466	0.032440534
580.84	0.13478	0.097859466	0.036920534
580.88	0.14038	0.097859467	0.042520533
580.92	0.14114	0.097859467	0.043280533
580.96	0.13493	0.097859468	0.037070532
581	0.13859	0.097859468	0.040730532
581.04	0.14134	0.097859468	0.043480532
581.08	0.14139	0.097859469	0.043530531
581.12	0.15097	0.097859469	0.053110531
581.16	0.15193	0.09785947	0.05407053
581.2	0.14801	0.09785947	0.05015053
581.24	0.14888	0.09785947	0.05102053
581.28	0.16013	0.097859471	0.062270529
581.32	0.16151	0.097859471	0.063650529
581.36	0.16431	0.097859472	0.066450528
581.4	0.16364	0.097859472	0.065780528
581.44	0.16507	0.097859472	0.067210528
581.48	0.17062	0.097859473	0.072760527
581.52	0.17999	0.097859473	0.082130527
581.56	0.18004	0.097859474	0.082180526
581.6	0.16716	0.097859474	0.069300526
581.64	0.16914	0.097859475	0.071280525
581.68	0.16863	0.097859475	0.070770525
581.72	0.17647	0.097859475	0.078610525
581.76	0.16945	0.097859476	0.071590524
581.8	0.17332	0.097859476	0.075460524
581.84	0.16512	0.097859477	0.067260523
581.88	0.15901	0.097859477	0.061150523
581.92	0.16013	0.097859477	0.062270523
581.96	0.16028	0.097859478	0.062420522
582	0.16115	0.097859478	0.063290522
582.04	0.16023	0.097859479	0.062370521
582.08	0.16614	0.097859479	0.068280521
582.12	0.1612	0.097859479	0.063340521
582.16	0.14246	0.09785948	0.04460052
582.2	0.14404	0.09785948	0.04618052
582.24	0.13859	0.097859481	0.040730519
582.28	0.13859	0.097859481	0.040730519
582.32	0.14791	0.097859482	0.050050518
582.36	0.14511	0.097859482	0.047250518
582.4	0.13238	0.097859482	0.034520518
582.44	0.12337	0.097859483	0.025510517
582.48	0.13493	0.097859483	0.037070517
582.52	0.11614	0.097859484	0.018280516
582.56	0.11609	0.097859484	0.018230516
582.6	0.12149	0.097859484	0.023630516
582.64	0.11685	0.097859485	0.018990515
582.68	0.11039	0.097859485	0.012530515
582.72	0.11105	0.097859486	0.013190514
582.76	0.10545	0.097859486	0.007590514
582.8	0.10438	0.097859486	0.006520514
582.84	0.1026	0.097859487	0.004740513
582.88	0.1028	0.097859487	0.004940513
582.92	0.10189	0.097859488	0.004030512
582.96	0.10545	0.097859488	0.007590512
583	0.09715	0.097859489	-0.000709489
583.04	0.09522	0.097859489	-0.002639489
583.08	0.10015	0.097859489	0.002290511
583.12	0.09537	0.09785949	-0.00248949
583.16	0.09511	0.09785949	-0.00274949
583.2	0.10087	0.097859491	0.003010509
583.24	0.10077	0.097859491	0.002910509
583.28	0.10077	0.097859491	0.002910509
583.32	0.09985	0.097859492	0.001990508
583.36	0.10005	0.097859492	0.002190508
583.4	0.0999	0.097859493	0.002040507
583.44	0.0999	0.097859493	0.002040507
583.48	0.10015	0.097859493	0.002290507
583.52	0.09501	0.097859494	-0.002849494
583.56	0.10077	0.097859494	0.002910506
583.6	0.10178	0.097859495	0.003920505
583.64	0.10178	0.097859495	0.003920505
583.68	0.0999	0.097859496	0.002040504
583.72	0.09797	0.097859496	0.000110504
583.76	0.09771	0.097859496	-0.000149496
583.8	0.09812	0.097859497	0.000260503
583.84	0.10183	0.097859497	0.003970503
583.88	0.10438	0.097859498	0.006520502
583.92	0.10092	0.097859498	0.003060502
583.96	0.09598	0.097859498	-0.001879498
584	0.11329	0.097859499	0.015430501
584.04	0.11324	0.097859499	0.015380501
584.08	0.10387	0.0978595	0.0060105
584.12	0.10178	0.0978595	0.0039205
584.16	0.10581	0.0978595	0.0079505
584.2	0.10352	0.097859501	0.005660499
584.24	0.1083	0.097859501	0.010440499
584.28	0.11405	0.097859502	0.016190498
584.32	0.11604	0.097859502	0.018180498
584.36	0.11696	0.097859502	0.019100498
584.4	0.10912	0.097859503	0.011260497
584.44	0.11314	0.097859503	0.015280497
584.48	0.1195	0.097859504	0.021640496
584.52	0.11869	0.097859504	0.020830496
584.56	0.11487	0.097859505	0.017010495
584.6	0.11894	0.097859505	0.021080495
584.64	0.11859	0.097859505	0.020730495
584.68	0.12062	0.097859506	0.022760494
584.72	0.12083	0.097859506	0.022970494
584.76	0.11685	0.097859507	0.018990493
584.8	0.11986	0.097859507	0.022000493
584.84	0.12327	0.097859507	0.025410493
584.88	0.12245	0.097859508	0.024590492
584.92	0.1224	0.097859508	0.024540492
584.96	0.12602	0.097859509	0.028160491
585	0.12902	0.097859509	0.031160491
585.04	0.12164	0.097859509	0.023780491
585.08	0.12245	0.09785951	0.02459049
585.12	0.12541	0.09785951	0.02755049
585.16	0.12159	0.097859511	0.023730489
585.2	0.12342	0.097859511	0.025560489
585.24	0.12327	0.097859512	0.025410488
585.28	0.12144	0.097859512	0.023580488
585.32	0.11691	0.097859512	0.019050488
585.36	0.11899	0.097859513	0.021130487
585.4	0.12174	0.097859513	0.023880487
585.44	0.1139	0.097859514	0.016040486
585.48	0.11675	0.097859514	0.018890486
585.52	0.1168	0.097859514	0.018940486
585.56	0.10616	0.097859515	0.008300485
585.6	0.11787	0.097859515	0.020010485
585.64	0.11304	0.097859516	0.015180484
585.68	0.10942	0.097859516	0.011560484
585.72	0.1112	0.097859516	0.013340484
585.76	0.10357	0.097859517	0.005710483
585.8	0.10377	0.097859517	0.005910483
585.84	0.11584	0.097859518	0.017980482
585.88	0.10647	0.097859518	0.008610482
585.92	0.11085	0.097859519	0.012990481
585.96	0.10367	0.097859519	0.005810481
586	0.11105	0.097859519	0.013190481
586.04	0.1027	0.09785952	0.00484048
586.08	0.11237	0.09785952	0.01451048
586.12	0.11222	0.097859521	0.014360479
586.16	0.11232	0.097859521	0.014460479
586.2	0.10835	0.097859521	0.010490479
586.24	0.12164	0.097859522	0.023780478
586.28	0.11405	0.097859522	0.016190478
586.32	0.12515	0.097859523	0.027290477
586.36	0.12235	0.097859523	0.024490477
586.4	0.12251	0.097859523	0.024650477
586.44	0.13009	0.097859524	0.032230476
586.48	0.13116	0.097859524	0.033300476
586.52	0.12811	0.097859525	0.030250475
586.56	0.13493	0.097859525	0.037070475
586.6	0.13671	0.097859525	0.038850475
586.64	0.14506	0.097859526	0.047200474
586.68	0.13854	0.097859526	0.040680474
586.72	0.1387	0.097859527	0.040840473
586.76	0.15102	0.097859527	0.053160473
586.8	0.14613	0.097859528	0.048270472
586.84	0.14705	0.097859528	0.049190472
586.88	0.15081	0.097859528	0.052950472
586.92	0.15636	0.097859529	0.058500471
586.96	0.15423	0.097859529	0.056370471
587	0.15453	0.09785953	0.05667047
587.04	0.16044	0.09785953	0.06258047
587.08	0.1642	0.09785953	0.06634047
587.12	0.16619	0.097859531	0.068330469
587.16	0.16517	0.097859531	0.067310469
587.2	0.16395	0.097859532	0.066090468
587.24	0.15636	0.097859532	0.058500468
587.28	0.15667	0.097859532	0.058810468
587.32	0.16507	0.097859533	0.067210467
587.36	0.15438	0.097859533	0.056520467
587.4	0.15356	0.097859534	0.055700466
587.44	0.1584	0.097859534	0.060540466
587.48	0.15433	0.097859535	0.056470465
587.52	0.15657	0.097859535	0.058710465
587.56	0.1471	0.097859535	0.049240465
587.6	0.14705	0.097859536	0.049190464
587.64	0.14913	0.097859536	0.051270464
587.68	0.14786	0.097859537	0.050000463
587.72	0.14812	0.097859537	0.050260463
587.76	0.13681	0.097859537	0.038950463
587.8	0.13101	0.097859538	0.033150462
587.84	0.14134	0.097859538	0.043480462
587.88	0.14099	0.097859539	0.043130461
587.92	0.13371	0.097859539	0.035850461
587.96	0.12912	0.097859539	0.031260461
588	0.12811	0.09785954	0.03025046
588.04	0.12154	0.09785954	0.02368046
588.08	0.12149	0.097859541	0.023630459
588.12	0.11594	0.097859541	0.018080459
588.16	0.11589	0.097859542	0.018030458
588.2	0.11227	0.097859542	0.014410458
588.24	0.11146	0.097859542	0.013600458
588.28	0.10275	0.097859543	0.004890457
588.32	0.09985	0.097859543	0.001990457
588.36	0.1083	0.097859544	0.010440456
588.4	0.10092	0.097859544	0.003060456
588.44	0.1053	0.097859544	0.007440456
588.48	0.10535	0.097859545	0.007490455
588.52	0.10372	0.097859545	0.005860455
588.56	0.10372	0.097859546	0.005860454
588.6	0.1054	0.097859546	0.007540454
588.64	0.10199	0.097859546	0.004130454
588.68	0.10382	0.097859547	0.005960453
588.72	0.10484	0.097859547	0.006980453
588.76	0.10458	0.097859548	0.006720452
588.8	0.10311	0.097859548	0.005250452
588.84	0.10183	0.097859549	0.003970451
588.88	0.11217	0.097859549	0.014310451
588.92	0.10438	0.097859549	0.006520451
588.96	0.11197	0.09785955	0.01411045
589	0.11319	0.09785955	0.01533045
589.04	0.1111	0.097859551	0.013240449
589.08	0.11125	0.097859551	0.013390449
589.12	0.11741	0.097859551	0.019550449
589.16	0.11115	0.097859552	0.013290448
589.2	0.11482	0.097859552	0.016960448
589.24	0.11507	0.097859553	0.017210447
589.28	0.11884	0.097859553	0.020980447
589.32	0.11879	0.097859553	0.020930447
589.36	0.11899	0.097859554	0.021130446
589.4	0.12526	0.097859554	0.027400446
589.44	0.12892	0.097859555	0.031060445
589.48	0.12627	0.097859555	0.028410445
589.52	0.13096	0.097859555	0.033100445
589.56	0.13228	0.097859556	0.034420444
589.6	0.13661	0.097859556	0.038750444
589.64	0.13681	0.097859557	0.038950443
589.68	0.1387	0.097859557	0.040840443
589.72	0.14501	0.097859558	0.047150442
589.76	0.14048	0.097859558	0.042620442
589.8	0.14043	0.097859558	0.042570442
589.84	0.14134	0.097859559	0.043480441
589.88	0.14898	0.097859559	0.051120441
589.92	0.1498	0.09785956	0.05194044
589.96	0.14974	0.09785956	0.05188044
590	0.14119	0.09785956	0.04333044
590.04	0.14796	0.097859561	0.050100439
590.08	0.15076	0.097859561	0.052900439
590.12	0.1471	0.097859562	0.049240438
590.16	0.14873	0.097859562	0.050870438
590.2	0.14908	0.097859562	0.051220438
590.24	0.14903	0.097859563	0.051170437
590.28	0.15	0.097859563	0.052140437
590.32	0.14837	0.097859564	0.050510436
590.36	0.1498	0.097859564	0.051940436
590.4	0.14791	0.097859565	0.050050435
590.44	0.15285	0.097859565	0.054990435
590.48	0.14806	0.097859565	0.050200435
590.52	0.14603	0.097859566	0.048170434
590.56	0.14603	0.097859566	0.048170434
590.6	0.14791	0.097859567	0.050050433
590.64	0.14104	0.097859567	0.043180433
590.68	0.14598	0.097859567	0.048120433
590.72	0.14058	0.097859568	0.042720432
590.76	0.13758	0.097859568	0.039720432
590.8	0.13946	0.097859569	0.041600431
590.84	0.13946	0.097859569	0.041600431
590.88	0.13009	0.097859569	0.032230431
590.92	0.13727	0.09785957	0.03941043
590.96	0.1308	0.09785957	0.03294043
591	0.12526	0.097859571	0.027400429
591.04	0.12638	0.097859571	0.028520429
591.08	0.12556	0.097859572	0.027700428
591.12	0.12515	0.097859572	0.027290428
591.16	0.12159	0.097859572	0.023730428
591.2	0.12256	0.097859573	0.024700427
591.24	0.12169	0.097859573	0.023830427
591.28	0.12052	0.097859574	0.022660426
591.32	0.12622	0.097859574	0.028360426
591.36	0.12347	0.097859574	0.025610426
591.4	0.11685	0.097859575	0.018990425
591.44	0.1168	0.097859575	0.018940425
591.48	0.1139	0.097859576	0.016040424
591.52	0.11762	0.097859576	0.019760424
591.56	0.11416	0.097859576	0.016300424
591.6	0.11304	0.097859577	0.015180423
591.64	0.11395	0.097859577	0.016090423
591.68	0.11222	0.097859578	0.014360422
591.72	0.11222	0.097859578	0.014360422
591.76	0.10917	0.097859578	0.011310422
591.8	0.10932	0.097859579	0.011460421
591.84	0.11309	0.097859579	0.015230421
591.88	0.11696	0.09785958	0.01910042
591.92	0.11024	0.09785958	0.01238042
591.96	0.11232	0.097859581	0.014460419
592	0.11202	0.097859581	0.014160419
592.04	0.10565	0.097859581	0.007790419
592.08	0.10993	0.097859582	0.012070418
592.12	0.10555	0.097859582	0.007690418
592.16	0.10352	0.097859583	0.005660417
592.2	0.10835	0.097859583	0.010490417
592.24	0.10723	0.097859583	0.009370417
592.28	0.09807	0.097859584	0.000210416
592.32	0.09791	0.097859584	5.04157E-05
592.36	0.1054	0.097859585	0.007540415
592.4	0.10922	0.097859585	0.011360415
592.44	0.10087	0.097859585	0.003010415
592.48	0.11512	0.097859586	0.017260414
592.52	0.10178	0.097859586	0.003920414
592.56	0.10744	0.097859587	0.009580413
592.6	0.10749	0.097859587	0.009630413
592.64	0.10845	0.097859588	0.010590412
592.68	0.10906	0.097859588	0.011200412
592.72	0.10458	0.097859588	0.006720412
592.76	0.1085	0.097859589	0.010640411
592.8	0.10168	0.097859589	0.003820411
592.84	0.10443	0.09785959	0.00657041
592.88	0.10377	0.09785959	0.00591041
592.92	0.10382	0.09785959	0.00596041
592.96	0.10255	0.097859591	0.004690409
593	0.10922	0.097859591	0.011360409
593.04	0.11691	0.097859592	0.019050408
593.08	0.10637	0.097859592	0.008510408
593.12	0.1082	0.097859592	0.010340408
593.16	0.10927	0.097859593	0.011410407
593.2	0.10917	0.097859593	0.011310407
593.24	0.10922	0.097859594	0.011360406
593.28	0.11293	0.097859594	0.015070406
593.32	0.11696	0.097859595	0.019100405
593.36	0.12067	0.097859595	0.022810405
593.4	0.11411	0.097859595	0.016250405
593.44	0.11538	0.097859596	0.017520404
593.48	0.11477	0.097859596	0.016910404
593.52	0.11864	0.097859597	0.020780403
593.56	0.10637	0.097859597	0.008510403
593.6	0.11986	0.097859597	0.022000403
593.64	0.11207	0.097859598	0.014210402
593.68	0.10815	0.097859598	0.010290402
593.72	0.11431	0.097859599	0.016450401
593.76	0.10728	0.097859599	0.009420401
593.8	0.10749	0.097859599	0.009630401
593.84	0.11329	0.0978596	0.0154304
593.88	0.11324	0.0978596	0.0153804
593.92	0.11186	0.097859601	0.014000399
593.96	0.10769	0.097859601	0.009830399
594	0.11685	0.097859602	0.018990398
594.04	0.10759	0.097859602	0.009730398
594.08	0.10728	0.097859602	0.009420398
594.12	0.11018	0.097859603	0.012320397
594.16	0.11288	0.097859603	0.015020397
594.2	0.11105	0.097859604	0.013190396
594.24	0.11024	0.097859604	0.012380396
594.28	0.11044	0.097859604	0.012580396
594.32	0.10642	0.097859605	0.008560395
594.36	0.10555	0.097859605	0.007690395
594.4	0.10525	0.097859606	0.007390394
594.44	0.11013	0.097859606	0.012270394
594.48	0.10779	0.097859606	0.009930394
594.52	0.11029	0.097859607	0.012430393
594.56	0.1055	0.097859607	0.007640393
594.6	0.10723	0.097859608	0.009370392
594.64	0.10662	0.097859608	0.008760392
594.68	0.10637	0.097859608	0.008510392
594.72	0.10265	0.097859609	0.004790391
594.76	0.10178	0.097859609	0.003920391
594.8	0.10189	0.09785961	0.00403039
594.84	0.10927	0.09785961	0.01141039
594.88	0.10932	0.097859611	0.011460389
594.92	0.10733	0.097859611	0.009470389
594.96	0.10733	0.097859611	0.009470389
595	0.1084	0.097859612	0.010540388
595.04	0.10387	0.097859612	0.006010388
595.08	0.10071	0.097859613	0.002850387
595.12	0.1027	0.097859613	0.004840387
595.16	0.10525	0.097859613	0.007390387
595.2	0.10535	0.097859614	0.007490386
595.24	0.11487	0.097859614	0.017010386
595.28	0.11497	0.097859615	0.017110385
595.32	0.11049	0.097859615	0.012630385
595.36	0.11986	0.097859615	0.022000385
595.4	0.11054	0.097859616	0.012680384
595.44	0.10998	0.097859616	0.012120384
595.48	0.11003	0.097859617	0.012170383
595.52	0.11298	0.097859617	0.015120383
595.56	0.11314	0.097859618	0.015280382
595.6	0.1111	0.097859618	0.013240382
595.64	0.11207	0.097859618	0.014210382
595.68	0.11609	0.097859619	0.018230381
595.72	0.11298	0.097859619	0.015120381
595.76	0.11604	0.09785962	0.01818038
595.8	0.11981	0.09785962	0.02195038
595.84	0.11986	0.09785962	0.02200038
595.88	0.12215	0.097859621	0.024290379
595.92	0.12526	0.097859621	0.027400379
595.96	0.12561	0.097859622	0.027750378
596	0.11981	0.097859622	0.021950378
596.04	0.12164	0.097859622	0.023780378
596.08	0.11894	0.097859623	0.021080377
596.12	0.12729	0.097859623	0.029430377
596.16	0.12729	0.097859624	0.029430376
596.2	0.13381	0.097859624	0.035950376
596.24	0.12556	0.097859625	0.027700375
596.28	0.12439	0.097859625	0.026530375
596.32	0.12622	0.097859625	0.028360375
596.36	0.12154	0.097859626	0.023680374
596.4	0.12653	0.097859626	0.028670374
596.44	0.12622	0.097859627	0.028360373
596.48	0.13386	0.097859627	0.036000373
596.52	0.12963	0.097859627	0.031770373
596.56	0.12826	0.097859628	0.030400372
596.6	0.13488	0.097859628	0.037020372
596.64	0.12806	0.097859629	0.030200371
596.68	0.12729	0.097859629	0.029430371
596.72	0.12806	0.097859629	0.030200371
596.76	0.12826	0.09785963	0.03040037
596.8	0.13279	0.09785963	0.03493037
596.84	0.14114	0.097859631	0.043280369
596.88	0.13727	0.097859631	0.039410369
596.92	0.12918	0.097859632	0.031320368
596.96	0.13763	0.097859632	0.039770368
597	0.13478	0.097859632	0.036920368
597.04	0.13498	0.097859633	0.037120367
597.08	0.13493	0.097859633	0.037070367
597.12	0.13376	0.097859634	0.035900366
597.16	0.13223	0.097859634	0.034370366
597.2	0.13396	0.097859634	0.036100366
597.24	0.13198	0.097859635	0.034120365
597.28	0.13101	0.097859635	0.033150365
597.32	0.13106	0.097859636	0.033200364
597.36	0.13498	0.097859636	0.037120364
597.4	0.12902	0.097859636	0.031160364
597.44	0.13691	0.097859637	0.039050363
597.48	0.12648	0.097859637	0.028620363
597.52	0.12907	0.097859638	0.031210362
597.56	0.12923	0.097859638	0.031370362
597.6	0.12821	0.097859638	0.030350362
597.64	0.12811	0.097859639	0.030250361
597.68	0.12816	0.097859639	0.030300361
597.72	0.12887	0.09785964	0.03101036
597.76	0.12831	0.09785964	0.03045036
597.8	0.12699	0.097859641	0.029130359
597.84	0.12928	0.097859641	0.031420359
597.88	0.12638	0.097859641	0.028520359
597.92	0.12612	0.097859642	0.028260358
597.96	0.12648	0.097859642	0.028620358
598	0.12632	0.097859643	0.028460357
598.04	0.12434	0.097859643	0.026480357
598.08	0.12352	0.097859643	0.025660357
598.12	0.13014	0.097859644	0.032280356
598.16	0.12739	0.097859644	0.029530356
598.2	0.13569	0.097859645	0.037830355
598.24	0.13559	0.097859645	0.037730355
598.28	0.13004	0.097859645	0.032180355
598.32	0.12342	0.097859646	0.025560354
598.36	0.12846	0.097859646	0.030600354
598.4	0.12734	0.097859647	0.029480353
598.44	0.12907	0.097859647	0.031210353
598.48	0.13228	0.097859648	0.034420352
598.52	0.13213	0.097859648	0.034270352
598.56	0.12653	0.097859648	0.028670352
598.6	0.12439	0.097859649	0.026530351
598.64	0.12816	0.097859649	0.030300351
598.68	0.13004	0.09785965	0.03218035
598.72	0.12938	0.09785965	0.03152035
598.76	0.12383	0.09785965	0.02597035
598.8	0.12337	0.097859651	0.025510349
598.84	0.12928	0.097859651	0.031420349
598.88	0.13111	0.097859652	0.033250348
598.92	0.12846	0.097859652	0.030600348
598.96	0.11487	0.097859652	0.017010348
599	0.12643	0.097859653	0.028570347
599.04	0.12368	0.097859653	0.025820347
599.08	0.11604	0.097859654	0.018180346
599.12	0.11604	0.097859654	0.018180346
599.16	0.12225	0.097859655	0.024390345
599.2	0.11792	0.097859655	0.020060345
599.24	0.12541	0.097859655	0.027550345
599.28	0.12327	0.097859656	0.025410344
599.32	0.12332	0.097859656	0.025460344
599.36	0.11293	0.097859657	0.015070343
599.4	0.11283	0.097859657	0.014970343
599.44	0.11996	0.097859657	0.022100343
599.48	0.11482	0.097859658	0.016960342
599.52	0.12179	0.097859658	0.023930342
599.56	0.11609	0.097859659	0.018230341
599.6	0.1168	0.097859659	0.018940341
599.64	0.10621	0.097859659	0.008350341
599.68	0.10632	0.09785966	0.00846034
599.72	0.11584	0.09785966	0.01798034
599.76	0.11604	0.097859661	0.018180339
599.8	0.11584	0.097859661	0.017980339
599.84	0.11212	0.097859661	0.014260339
599.88	0.11416	0.097859662	0.016300338
599.92	0.11665	0.097859662	0.018790338
599.96	0.11411	0.097859663	0.016250337
600	0.11416	0.097859663	0.016300337
600.04	0.11324	0.097859664	0.015380336
600.08	0.11685	0.097859664	0.018990336
600.12	0.1109	0.097859664	0.013040336
600.16	0.11085	0.097859665	0.012990335
600.2	0.11859	0.097859665	0.020730335
600.24	0.11365	0.097859666	0.015790334
600.28	0.114	0.097859666	0.016140334
600.32	0.11217	0.097859666	0.014310334
600.36	0.11584	0.097859667	0.017980333
600.4	0.11579	0.097859667	0.017930333
600.44	0.11614	0.097859668	0.018280332
600.48	0.11614	0.097859668	0.018280332
600.52	0.10657	0.097859668	0.008710332
600.56	0.11782	0.097859669	0.019960331
600.6	0.11797	0.097859669	0.020110331
600.64	0.12347	0.09785967	0.02561033
600.68	0.11288	0.09785967	0.01502033
600.72	0.10927	0.097859671	0.011410329
600.76	0.11003	0.097859671	0.012170329
600.8	0.10922	0.097859671	0.011360329
600.84	0.11202	0.097859672	0.014160328
600.88	0.11202	0.097859672	0.014160328
600.92	0.11293	0.097859673	0.015070327
600.96	0.11624	0.097859673	0.018380327
601	0.11792	0.097859673	0.020060327
601.04	0.11222	0.097859674	0.014360326
601.08	0.10952	0.097859674	0.011660326
601.12	0.10922	0.097859675	0.011360325
601.16	0.10901	0.097859675	0.011150325
601.2	0.11665	0.097859675	0.018790325
601.24	0.10642	0.097859676	0.008560324
601.28	0.1083	0.097859676	0.010440324
601.32	0.10922	0.097859677	0.011360323
601.36	0.10927	0.097859677	0.011410323
601.4	0.1139	0.097859678	0.016040322
601.44	0.1168	0.097859678	0.018940322
601.48	0.11685	0.097859678	0.018990322
601.52	0.11416	0.097859679	0.016300321
601.56	0.1113	0.097859679	0.013440321
601.6	0.12251	0.09785968	0.02465032
601.64	0.11879	0.09785968	0.02093032
601.68	0.11212	0.09785968	0.01426032
601.72	0.12062	0.097859681	0.022760319
601.76	0.12052	0.097859681	0.022660319
601.8	0.12235	0.097859682	0.024490318
601.84	0.11385	0.097859682	0.015990318
601.88	0.12179	0.097859682	0.023930318
601.92	0.11492	0.097859683	0.017060317
601.96	0.11324	0.097859683	0.015380317
602	0.11512	0.097859684	0.017260316
602.04	0.12261	0.097859684	0.024750316
602.08	0.12251	0.097859685	0.024650315
602.12	0.12083	0.097859685	0.022970315
602.16	0.12444	0.097859685	0.026580315
602.2	0.12266	0.097859686	0.024800314
602.24	0.12266	0.097859686	0.024800314
602.28	0.11859	0.097859687	0.020730313
602.32	0.11945	0.097859687	0.021590313
602.36	0.1196	0.097859687	0.021740313
602.4	0.12632	0.097859688	0.028460312
602.44	0.12057	0.097859688	0.022710312
602.48	0.11808	0.097859689	0.020220311
602.52	0.11879	0.097859689	0.020930311
602.56	0.11787	0.097859689	0.020010311
602.6	0.11955	0.09785969	0.02169031
602.64	0.1196	0.09785969	0.02174031
602.68	0.12072	0.097859691	0.022860309
602.72	0.12515	0.097859691	0.027290309
602.76	0.12118	0.097859691	0.023320309
602.8	0.12245	0.097859692	0.024590308
602.84	0.12072	0.097859692	0.022860308
602.88	0.12057	0.097859693	0.022710307
602.92	0.11864	0.097859693	0.020780307
602.96	0.11874	0.097859694	0.020880306
603	0.12368	0.097859694	0.025820306
603.04	0.1247	0.097859694	0.026840306
603.08	0.12062	0.097859695	0.022760305
603.12	0.12505	0.097859695	0.027190305
603.16	0.12169	0.097859696	0.023830304
603.2	0.11792	0.097859696	0.020060304
603.24	0.11797	0.097859696	0.020110304
603.28	0.12434	0.097859697	0.026480303
603.32	0.12169	0.097859697	0.023830303
603.36	0.12128	0.097859698	0.023420302
603.4	0.12444	0.097859698	0.026580302
603.44	0.11843	0.097859698	0.020570302
603.48	0.12541	0.097859699	0.027550301
603.52	0.1252	0.097859699	0.027340301
603.56	0.12632	0.0978597	0.0284603
603.6	0.12729	0.0978597	0.0294303
603.64	0.12439	0.097859701	0.026530299
603.68	0.12724	0.097859701	0.029380299
603.72	0.12928	0.097859701	0.031420299
603.76	0.13116	0.097859702	0.033300298
603.8	0.12724	0.097859702	0.029380298
603.84	0.12714	0.097859703	0.029280297
603.88	0.12638	0.097859703	0.028520297
603.92	0.13467	0.097859703	0.036810297
603.96	0.12902	0.097859704	0.031160296
604	0.12536	0.097859704	0.027500296
604.04	0.13147	0.097859705	0.033610295
604.08	0.12531	0.097859705	0.027450295
604.12	0.12546	0.097859705	0.027600295
604.16	0.13126	0.097859706	0.033400294
604.2	0.12734	0.097859706	0.029480294
604.24	0.12439	0.097859707	0.026530293
604.28	0.1252	0.097859707	0.027340293
604.32	0.13106	0.097859708	0.033200292
604.36	0.12704	0.097859708	0.029180292
604.4	0.13096	0.097859708	0.033100292
604.44	0.13121	0.097859709	0.033350291
604.48	0.1224	0.097859709	0.024540291
604.52	0.13096	0.09785971	0.03310029
604.56	0.13203	0.09785971	0.03417029
604.6	0.13198	0.09785971	0.03412029
604.64	0.12159	0.097859711	0.023730289
604.68	0.13488	0.097859711	0.037020289
604.72	0.13467	0.097859712	0.036810288
604.76	0.12429	0.097859712	0.026430288
604.8	0.11853	0.097859712	0.020670288
604.84	0.12556	0.097859713	0.027700287
604.88	0.12154	0.097859713	0.023680287
604.92	0.12933	0.097859714	0.031470286
604.96	0.12999	0.097859714	0.032130286
605	0.1303	0.097859714	0.032440286
605.04	0.12724	0.097859715	0.029380285
605.08	0.13401	0.097859715	0.036150285
605.12	0.12541	0.097859716	0.027550284
605.16	0.13391	0.097859716	0.036050284
605.2	0.11741	0.097859717	0.019550283
605.24	0.12734	0.097859717	0.029480283
605.28	0.12831	0.097859717	0.030450283
605.32	0.12821	0.097859718	0.030350282
605.36	0.11843	0.097859718	0.020570282
605.4	0.12734	0.097859719	0.029480281
605.44	0.11899	0.097859719	0.021130281
605.48	0.12159	0.097859719	0.023730281
605.52	0.12546	0.09785972	0.02760028
605.56	0.12938	0.09785972	0.03152028
605.6	0.12887	0.097859721	0.031010279
605.64	0.12358	0.097859721	0.025720279
605.68	0.12485	0.097859721	0.026990279
605.72	0.11517	0.097859722	0.017310278
605.76	0.12928	0.097859722	0.031420278
605.8	0.12337	0.097859723	0.025510277
605.84	0.12897	0.097859723	0.031110277
605.88	0.12612	0.097859724	0.028260276
605.92	0.12617	0.097859724	0.028310276
605.96	0.12449	0.097859724	0.026630276
606	0.11874	0.097859725	0.020880275
606.04	0.11991	0.097859725	0.022050275
606.08	0.13035	0.097859726	0.032490274
606.12	0.12918	0.097859726	0.031320274
606.16	0.12739	0.097859726	0.029530274
606.2	0.12694	0.097859727	0.029080273
606.24	0.12648	0.097859727	0.028620273
606.28	0.12373	0.097859728	0.025870272
606.32	0.11869	0.097859728	0.020830272
606.36	0.12785	0.097859728	0.029990272
606.4	0.13101	0.097859729	0.033150271
606.44	0.128	0.097859729	0.030140271
606.48	0.12795	0.09785973	0.03009027
606.52	0.12414	0.09785973	0.02628027
606.56	0.12256	0.097859731	0.024700269
606.6	0.12912	0.097859731	0.031260269
606.64	0.12816	0.097859731	0.030300269
606.68	0.12546	0.097859732	0.027600268
606.72	0.12154	0.097859732	0.023680268
606.76	0.12729	0.097859733	0.029430267
606.8	0.12704	0.097859733	0.029180267
606.84	0.12709	0.097859733	0.029230267
606.88	0.12551	0.097859734	0.027650266
606.92	0.13187	0.097859734	0.034010266
606.96	0.12536	0.097859735	0.027500265
607	0.13009	0.097859735	0.032230265
607.04	0.11965	0.097859735	0.021790265
607.08	0.11971	0.097859736	0.021850264
607.12	0.13483	0.097859736	0.036970264
607.16	0.12536	0.097859737	0.027500263
607.2	0.12836	0.097859737	0.030500263
607.24	0.13305	0.097859738	0.035190262
607.28	0.12821	0.097859738	0.030350262
607.32	0.12836	0.097859738	0.030500262
607.36	0.12806	0.097859739	0.030200261
607.4	0.12918	0.097859739	0.031320261
607.44	0.12709	0.09785974	0.02923026
607.48	0.13376	0.09785974	0.03590026
607.52	0.12648	0.09785974	0.02862026
607.56	0.12734	0.097859741	0.029480259
607.6	0.13126	0.097859741	0.033400259
607.64	0.13498	0.097859742	0.037120258
607.68	0.13488	0.097859742	0.037020258
607.72	0.12928	0.097859742	0.031420258
607.76	0.14526	0.097859743	0.047400257
607.8	0.13203	0.097859743	0.034170257
607.84	0.12719	0.097859744	0.029330256
607.88	0.13666	0.097859744	0.038800256
607.92	0.13595	0.097859744	0.038090256
607.96	0.13564	0.097859745	0.037780255
608	0.12892	0.097859745	0.031060255
608.04	0.13101	0.097859746	0.033150254
608.08	0.12439	0.097859746	0.026530254
608.12	0.13299	0.097859747	0.035130253
608.16	0.13004	0.097859747	0.032180253
608.2	0.12846	0.097859747	0.030600253
608.24	0.13167	0.097859748	0.033810252
608.28	0.13203	0.097859748	0.034170252
608.32	0.12984	0.097859749	0.031980251
608.36	0.12607	0.097859749	0.028210251
608.4	0.13279	0.097859749	0.034930251
608.44	0.12907	0.09785975	0.03121025
608.48	0.13941	0.09785975	0.04155025
608.52	0.13376	0.097859751	0.035900249
608.56	0.13391	0.097859751	0.036050249
608.6	0.13478	0.097859751	0.036920249
608.64	0.13737	0.097859752	0.039510248
608.68	0.14063	0.097859752	0.042770248
608.72	0.1331	0.097859753	0.035240247
608.76	0.13116	0.097859753	0.033300247
608.8	0.13865	0.097859754	0.040790246
608.84	0.1388	0.097859754	0.040940246
608.88	0.13111	0.097859754	0.033250246
608.92	0.13579	0.097859755	0.037930245
608.96	0.14318	0.097859755	0.045320245
609	0.13926	0.097859756	0.041400244
609.04	0.14343	0.097859756	0.045570244
609.08	0.14043	0.097859756	0.042570244
609.12	0.13956	0.097859757	0.041700243
609.16	0.13946	0.097859757	0.041600243
609.2	0.13473	0.097859758	0.036870242
609.24	0.14134	0.097859758	0.043480242
609.28	0.13671	0.097859758	0.038850242
609.32	0.13747	0.097859759	0.039610241
609.36	0.14277	0.097859759	0.044910241
609.4	0.13859	0.09785976	0.04073024
609.44	0.13865	0.09785976	0.04079024
609.48	0.13778	0.097859761	0.039920239
609.52	0.14689	0.097859761	0.049030239
609.56	0.14694	0.097859761	0.049080239
609.6	0.14333	0.097859762	0.045470238
609.64	0.14328	0.097859762	0.045420238
609.68	0.1499	0.097859763	0.052040237
609.72	0.14302	0.097859763	0.045160237
609.76	0.14328	0.097859763	0.045420237
609.8	0.14323	0.097859764	0.045370236
609.84	0.14318	0.097859764	0.045320236
609.88	0.14582	0.097859765	0.047960235
609.92	0.14593	0.097859765	0.048070235
609.96	0.14068	0.097859765	0.042820235
610	0.14216	0.097859766	0.044300234
610.04	0.14226	0.097859766	0.044400234
610.08	0.147	0.097859767	0.049140233
610.12	0.13661	0.097859767	0.038750233
610.16	0.14613	0.097859768	0.048270232
610.2	0.13773	0.097859768	0.039870232
610.24	0.14888	0.097859768	0.051020232
610.28	0.1359	0.097859769	0.038040231
610.32	0.1359	0.097859769	0.038040231
610.36	0.13483	0.09785977	0.03697023
610.4	0.1391	0.09785977	0.04124023
610.44	0.14231	0.09785977	0.04445023
610.48	0.13844	0.097859771	0.040580229
610.52	0.14206	0.097859771	0.044200229
610.56	0.13921	0.097859772	0.041350228
610.6	0.15061	0.097859772	0.052750228
610.64	0.15097	0.097859772	0.053110228
610.68	0.14048	0.097859773	0.042620227
610.72	0.14618	0.097859773	0.048320227
610.76	0.15	0.097859774	0.052140226
610.8	0.15479	0.097859774	0.056930226
610.84	0.15097	0.097859774	0.053110226
610.88	0.15448	0.097859775	0.056620225
610.92	0.15468	0.097859775	0.056820225
610.96	0.1471	0.097859776	0.049240224
611	0.1526	0.097859776	0.054740224
611.04	0.15183	0.097859777	0.053970223
611.08	0.1526	0.097859777	0.054740223
611.12	0.15453	0.097859777	0.056670223
611.16	0.14806	0.097859778	0.050200222
611.2	0.14806	0.097859778	0.050200222
611.24	0.15657	0.097859779	0.058710221
611.28	0.14929	0.097859779	0.051430221
611.32	0.15728	0.097859779	0.059420221
611.36	0.15555	0.09785978	0.05769022
611.4	0.16028	0.09785978	0.06242022
611.44	0.14796	0.097859781	0.050100219
611.48	0.15616	0.097859781	0.058300219
611.52	0.15636	0.097859781	0.058500219
611.56	0.15835	0.097859782	0.060490218
611.6	0.15809	0.097859782	0.060230218
611.64	0.14801	0.097859783	0.050150217
611.68	0.15295	0.097859783	0.055090217
611.72	0.1556	0.097859784	0.057740216
611.76	0.16033	0.097859784	0.062470216
611.8	0.16023	0.097859784	0.062370216
611.84	0.15657	0.097859785	0.058710215
611.88	0.15743	0.097859785	0.059570215
611.92	0.14893	0.097859786	0.051070214
611.96	0.14511	0.097859786	0.047250214
612	0.15102	0.097859786	0.053160214
612.04	0.15428	0.097859787	0.056420213
612.08	0.14216	0.097859787	0.044300213
612.12	0.14231	0.097859788	0.044450212
612.16	0.16033	0.097859788	0.062470212
612.2	0.15081	0.097859788	0.052950212
612.24	0.14241	0.097859789	0.044550211
612.28	0.1499	0.097859789	0.052040211
612.32	0.14613	0.09785979	0.04827021
612.36	0.15275	0.09785979	0.05489021
612.4	0.15295	0.097859791	0.055090209
612.44	0.147	0.097859791	0.049140209
612.48	0.14623	0.097859791	0.048370209
612.52	0.14857	0.097859792	0.050710208
612.56	0.15865	0.097859792	0.060790208
612.6	0.14964	0.097859793	0.051780207
612.64	0.15331	0.097859793	0.055450207
612.68	0.15367	0.097859793	0.055810207
612.72	0.15097	0.097859794	0.053110206
612.76	0.14705	0.097859794	0.049190206
612.8	0.14526	0.097859795	0.047400205
612.84	0.15102	0.097859795	0.053160205
612.88	0.15937	0.097859795	0.061510205
612.92	0.15204	0.097859796	0.054180204
612.96	0.14888	0.097859796	0.051020204
613	0.14908	0.097859797	0.051220203
613.04	0.15942	0.097859797	0.061560203
613.08	0.15081	0.097859797	0.052950203
613.12	0.15443	0.097859798	0.056570202
613.16	0.1639	0.097859798	0.066040202
613.2	0.15341	0.097859799	0.055550201
613.24	0.15937	0.097859799	0.061510201
613.28	0.15957	0.0978598	0.0617102
613.32	0.16044	0.0978598	0.0625802
613.36	0.16028	0.0978598	0.0624202
613.4	0.15718	0.097859801	0.059320199
613.44	0.16517	0.097859801	0.067310199
613.48	0.16578	0.097859802	0.067920198
613.52	0.16319	0.097859802	0.065330198
613.56	0.15932	0.097859802	0.061460198
613.6	0.15937	0.097859803	0.061510197
613.64	0.16558	0.097859803	0.067720197
613.68	0.17403	0.097859804	0.076170196
613.72	0.17337	0.097859804	0.075510196
613.76	0.17245	0.097859804	0.074590196
613.8	0.18773	0.097859805	0.089870195
613.84	0.18396	0.097859805	0.086100195
613.88	0.18386	0.097859806	0.086000194
613.92	0.18116	0.097859806	0.083300194
613.96	0.18864	0.097859807	0.090780193
614	0.1888	0.097859807	0.090940193
614.04	0.19608	0.097859807	0.098220193
614.08	0.19608	0.097859808	0.098220192
614.12	0.21318	0.097859808	0.115320192
614.16	0.21303	0.097859809	0.115170191
614.2	0.19613	0.097859809	0.098270191
614.24	0.21868	0.097859809	0.120820191
614.28	0.21308	0.09785981	0.11522019
614.32	0.21782	0.09785981	0.11996019
614.36	0.23095	0.097859811	0.133090189
614.4	0.22922	0.097859811	0.131360189
614.44	0.23029	0.097859811	0.132430189
614.48	0.23014	0.097859812	0.132280188
614.52	0.23625	0.097859812	0.138390188
614.56	0.23935	0.097859813	0.141490187
614.6	0.24791	0.097859813	0.150050187
614.64	0.25071	0.097859814	0.152850186
614.68	0.26008	0.097859814	0.162220186
614.72	0.26206	0.097859814	0.164200186
614.76	0.26211	0.097859815	0.164250185
614.8	0.25666	0.097859815	0.158800185
614.84	0.26038	0.097859816	0.162520184
614.88	0.24903	0.097859816	0.151170184
614.92	0.26018	0.097859816	0.162320184
614.96	0.25733	0.097859817	0.159470183
615	0.25259	0.097859817	0.154730183
615.04	0.25274	0.097859818	0.154880182
615.08	0.25819	0.097859818	0.160330182
615.12	0.26221	0.097859818	0.164350182
615.16	0.25921	0.097859819	0.161350181
615.2	0.24969	0.097859819	0.151830181
615.24	0.24251	0.09785982	0.14465018
615.28	0.24994	0.09785982	0.15208018
615.32	0.24801	0.097859821	0.150150179
615.36	0.24791	0.097859821	0.150050179
615.4	0.23762	0.097859821	0.139760179
615.44	0.24022	0.097859822	0.142360178
615.48	0.22265	0.097859822	0.124790178
615.52	0.22245	0.097859823	0.124590177
615.56	0.21303	0.097859823	0.115170177
615.6	0.20733	0.097859823	0.109470177
615.64	0.20702	0.097859824	0.109160176
615.68	0.21115	0.097859824	0.113290176
615.72	0.20254	0.097859825	0.104680175
615.76	0.19888	0.097859825	0.101020175
615.8	0.19536	0.097859825	0.097500175
615.84	0.19445	0.097859826	0.096590174
615.88	0.18768	0.097859826	0.089820174
615.92	0.18752	0.097859827	0.089660173
615.96	0.18762	0.097859827	0.089760173
616	0.18223	0.097859827	0.084370173
616.04	0.18493	0.097859828	0.087070172
616.08	0.17724	0.097859828	0.079380172
616.12	0.16868	0.097859829	0.070820171
616.16	0.17612	0.097859829	0.078260171
616.2	0.1751	0.09785983	0.07724017
616.24	0.175	0.09785983	0.07714017
616.28	0.17123	0.09785983	0.07337017
616.32	0.17571	0.097859831	0.077850169
616.36	0.17342	0.097859831	0.075560169
616.4	0.1642	0.097859832	0.066340168
616.44	0.16772	0.097859832	0.069860168
616.48	0.17327	0.097859832	0.075410168
616.52	0.17347	0.097859833	0.075610167
616.56	0.1781	0.097859833	0.080240167
616.6	0.17133	0.097859834	0.073470166
616.64	0.1668	0.097859834	0.068940166
616.68	0.16802	0.097859834	0.070160166
616.72	0.1695	0.097859835	0.071640165
616.76	0.16863	0.097859835	0.070770165
616.8	0.1753	0.097859836	0.077440164
616.84	0.17495	0.097859836	0.077090164
616.88	0.17525	0.097859837	0.077390163
616.92	0.17159	0.097859837	0.073730163
616.96	0.17362	0.097859837	0.075760163
617	0.18024	0.097859838	0.082380162
617.04	0.17917	0.097859838	0.081310162
617.08	0.17826	0.097859839	0.080400161
617.12	0.1781	0.097859839	0.080240161
617.16	0.17836	0.097859839	0.080500161
617.2	0.17515	0.09785984	0.07729016
617.24	0.17617	0.09785984	0.07831016
617.28	0.18192	0.097859841	0.084060159
617.32	0.17057	0.097859841	0.072710159
617.36	0.17739	0.097859841	0.079530159
617.4	0.17642	0.097859842	0.078560158
617.44	0.17423	0.097859842	0.076370158
617.48	0.18172	0.097859843	0.083860157
617.52	0.18197	0.097859843	0.084110157
617.56	0.18472	0.097859844	0.086860156
617.6	0.1753	0.097859844	0.077440156
617.64	0.1668	0.097859844	0.068940156
617.68	0.17627	0.097859845	0.078410155
617.72	0.17612	0.097859845	0.078260155
617.76	0.17342	0.097859846	0.075560154
617.8	0.16782	0.097859846	0.069960154
617.84	0.17342	0.097859846	0.075560154
617.88	0.18187	0.097859847	0.084010153
617.92	0.18106	0.097859847	0.083200153
617.96	0.17826	0.097859848	0.080400152
618	0.178	0.097859848	0.080140152
618.04	0.18386	0.097859848	0.086000152
618.08	0.17831	0.097859849	0.080450151
618.12	0.17551	0.097859849	0.077650151
618.16	0.18742	0.09785985	0.08956015
618.2	0.18406	0.09785985	0.08620015
618.24	0.17989	0.09785985	0.08203015
618.28	0.1752	0.097859851	0.077340149
618.32	0.1752	0.097859851	0.077340149
618.36	0.18493	0.097859852	0.087070148
618.4	0.17337	0.097859852	0.075510148
618.44	0.17143	0.097859853	0.073570147
618.48	0.18885	0.097859853	0.090990147
618.52	0.18503	0.097859853	0.087170147
618.56	0.18131	0.097859854	0.083450146
618.6	0.1809	0.097859854	0.083040146
618.64	0.18773	0.097859855	0.089870145
618.68	0.17627	0.097859855	0.078410145
618.72	0.18187	0.097859855	0.084010145
618.76	0.17785	0.097859856	0.079990144
618.8	0.18289	0.097859856	0.085030144
618.84	0.18401	0.097859857	0.086150143
618.88	0.18406	0.097859857	0.086200143
618.92	0.18085	0.097859857	0.082990143
618.96	0.18274	0.097859858	0.084880142
619	0.18488	0.097859858	0.087020142
619.04	0.19552	0.097859859	0.097660141
619.08	0.19165	0.097859859	0.093790141
619.12	0.19821	0.09785986	0.10035014
619.16	0.18854	0.09785986	0.09068014
619.2	0.18864	0.09785986	0.09078014
619.24	0.19995	0.097859861	0.102090139
619.28	0.19715	0.097859861	0.099290139
619.32	0.19771	0.097859862	0.099850138
619.36	0.19872	0.097859862	0.100860138
619.4	0.20768	0.097859862	0.109820138
619.44	0.20443	0.097859863	0.106570137
619.48	0.20443	0.097859863	0.106570137
619.52	0.20845	0.097859864	0.110590136
619.56	0.20438	0.097859864	0.106520136
619.6	0.21873	0.097859864	0.120870136
619.64	0.2169	0.097859865	0.119040135
619.68	0.22041	0.097859865	0.122550135
619.72	0.22062	0.097859866	0.122760134
619.76	0.23156	0.097859866	0.133700134
619.8	0.23172	0.097859867	0.133860133
619.84	0.22062	0.097859867	0.122760133
619.88	0.23029	0.097859867	0.132430133
619.92	0.23854	0.097859868	0.140680132
619.96	0.24597	0.097859868	0.148110132
620	0.24923	0.097859869	0.151370131
620.04	0.24226	0.097859869	0.144400131
620.08	0.24226	0.097859869	0.144400131
620.12	0.26955	0.09785987	0.17169013
620.16	0.26761	0.09785987	0.16975013
620.2	0.25539	0.097859871	0.157530129
620.24	0.25997	0.097859871	0.162110129
620.28	0.2724	0.097859871	0.174540129
620.32	0.26486	0.097859872	0.167000128
620.36	0.26491	0.097859872	0.167050128
620.4	0.27133	0.097859873	0.173470127
620.44	0.26237	0.097859873	0.164510127
620.48	0.25447	0.097859874	0.156610126
620.52	0.26868	0.097859874	0.170820126
620.56	0.26018	0.097859874	0.162320126
620.6	0.27352	0.097859875	0.175660125
620.64	0.26206	0.097859875	0.164200125
620.68	0.26211	0.097859876	0.164250124
620.72	0.26389	0.097859876	0.166030124
620.76	0.25834	0.097859876	0.160480124
620.8	0.24989	0.097859877	0.152030123
620.84	0.24388	0.097859877	0.146020123
620.88	0.24964	0.097859878	0.151780122
620.92	0.25071	0.097859878	0.152850122
620.96	0.25066	0.097859878	0.152800122
621	0.24058	0.097859879	0.142720121
621.04	0.24047	0.097859879	0.142610121
621.08	0.24231	0.09785988	0.14445012
621.12	0.22622	0.09785988	0.12836012
621.16	0.22092	0.09785988	0.12306012
621.2	0.22724	0.097859881	0.129380119
621.24	0.22718	0.097859881	0.129320119
621.28	0.22825	0.097859882	0.130390118
621.32	0.2199	0.097859882	0.122040118
621.36	0.22876	0.097859883	0.130900117
621.4	0.21858	0.097859883	0.120720117
621.44	0.21848	0.097859883	0.120620117
621.48	0.21598	0.097859884	0.118120116
621.52	0.22097	0.097859884	0.123110116
621.56	0.22062	0.097859885	0.122760115
621.6	0.20926	0.097859885	0.111400115
621.64	0.20921	0.097859885	0.111350115
621.68	0.20748	0.097859886	0.109620114
621.72	0.21018	0.097859886	0.112320114
621.76	0.20641	0.097859887	0.108550113
621.8	0.21497	0.097859887	0.117110113
621.84	0.21502	0.097859887	0.117160113
621.88	0.20331	0.097859888	0.105450112
621.92	0.20916	0.097859888	0.111300112
621.96	0.21206	0.097859889	0.114200111
622	0.21115	0.097859889	0.113290111
622.04	0.20723	0.09785989	0.10937011
622.08	0.21028	0.09785989	0.11242011
622.12	0.21222	0.09785989	0.11436011
622.16	0.21222	0.097859891	0.114360109
622.2	0.20188	0.097859891	0.104020109
622.24	0.20183	0.097859892	0.103970108
622.28	0.19989	0.097859892	0.102030108
622.32	0.20432	0.097859892	0.106460108
622.36	0.20931	0.097859893	0.111450107
622.4	0.20483	0.097859893	0.106970107
622.44	0.20458	0.097859894	0.106720106
622.48	0.20356	0.097859894	0.105700106
622.52	0.21155	0.097859894	0.113690106
622.56	0.2225	0.097859895	0.124640105
622.6	0.20738	0.097859895	0.109520105
622.64	0.20585	0.097859896	0.107990104
622.68	0.21878	0.097859896	0.120920104
622.72	0.21868	0.097859897	0.120820103
622.76	0.21609	0.097859897	0.118230103
622.8	0.21303	0.097859897	0.115170103
622.84	0.2195	0.097859898	0.121640102
622.88	0.21303	0.097859898	0.115170102
622.92	0.21497	0.097859899	0.117110101
622.96	0.22225	0.097859899	0.124390101
623	0.21211	0.097859899	0.114250101
623.04	0.21211	0.0978599	0.1142501
623.08	0.22245	0.0978599	0.1245901
623.12	0.22423	0.097859901	0.126370099
623.16	0.2225	0.097859901	0.124640099
623.2	0.23197	0.097859901	0.134110099
623.24	0.23935	0.097859902	0.141490098
623.28	0.22724	0.097859902	0.129380098
623.32	0.22698	0.097859903	0.129120097
623.36	0.24134	0.097859903	0.143480097
623.4	0.23844	0.097859904	0.140580096
623.44	0.23482	0.097859904	0.136960096
623.48	0.24129	0.097859904	0.143430096
623.52	0.2422	0.097859905	0.144340095
623.56	0.24699	0.097859905	0.149130095
623.6	0.25066	0.097859906	0.152800094
623.64	0.25086	0.097859906	0.153000094
623.68	0.26705	0.097859906	0.169190094
623.72	0.25631	0.097859907	0.158450093
623.76	0.26491	0.097859907	0.167050093
623.8	0.27438	0.097859908	0.176520092
623.84	0.27321	0.097859908	0.175350092
623.88	0.28808	0.097859908	0.190220092
623.92	0.28838	0.097859909	0.190520091
623.96	0.2779	0.097859909	0.180040091
624	0.26573	0.09785991	0.16787009
624.04	0.2809	0.09785991	0.18304009
624.08	0.28171	0.09785991	0.18385009
624.12	0.28182	0.097859911	0.183960089
624.16	0.27408	0.097859911	0.176220089
624.2	0.27438	0.097859912	0.176520088
624.24	0.27443	0.097859912	0.176570088
624.28	0.27484	0.097859913	0.176980087
624.32	0.28263	0.097859913	0.184770087
624.36	0.26756	0.097859913	0.169700087
624.4	0.26023	0.097859914	0.162370086
624.44	0.2584	0.097859914	0.160540086
624.48	0.27321	0.097859915	0.175350085
624.52	0.27341	0.097859915	0.175550085
624.56	0.26211	0.097859915	0.164250085
624.6	0.2586	0.097859916	0.160740084
624.64	0.25178	0.097859916	0.153920084
624.68	0.24246	0.097859917	0.144600083
624.72	0.24047	0.097859917	0.142610083
624.76	0.24704	0.097859917	0.149180083
624.8	0.24679	0.097859918	0.148930082
624.84	0.23935	0.097859918	0.141490082
624.88	0.23849	0.097859919	0.140630081
624.92	0.23019	0.097859919	0.132330081
624.96	0.23167	0.09785992	0.13381008
625	0.22637	0.09785992	0.12851008
625.04	0.23385	0.09785992	0.13599008
625.08	0.23406	0.097859921	0.136200079
625.12	0.22617	0.097859921	0.128310079
625.16	0.22912	0.097859922	0.131260078
625.2	0.21838	0.097859922	0.120520078
625.24	0.2283	0.097859922	0.130440078
625.28	0.21955	0.097859923	0.121690077
625.32	0.21497	0.097859923	0.117110077
625.36	0.21675	0.097859924	0.118890076
625.4	0.2167	0.097859924	0.118840076
625.44	0.22235	0.097859924	0.124490076
625.48	0.22062	0.097859925	0.122760075
625.52	0.22535	0.097859925	0.127490075
625.56	0.21873	0.097859926	0.120870074
625.6	0.21201	0.097859926	0.114150074
625.64	0.22352	0.097859927	0.125660073
625.68	0.22342	0.097859927	0.125560073
625.72	0.21313	0.097859927	0.115270073
625.76	0.22642	0.097859928	0.128560072
625.8	0.21191	0.097859928	0.114050072
625.84	0.22311	0.097859929	0.125250071
625.88	0.21771	0.097859929	0.119850071
625.92	0.22158	0.097859929	0.123720071
625.96	0.22805	0.09785993	0.13019007
626	0.2282	0.09785993	0.13034007
626.04	0.2226	0.097859931	0.124740069
626.08	0.22637	0.097859931	0.128510069
626.12	0.21603	0.097859931	0.118170069
626.16	0.22713	0.097859932	0.129270068
626.2	0.21965	0.097859932	0.121790068
626.24	0.22708	0.097859933	0.129220067
626.28	0.22703	0.097859933	0.129170067
626.32	0.22815	0.097859933	0.130290067
626.36	0.21883	0.097859934	0.120970066
626.4	0.2225	0.097859934	0.124640066
626.44	0.21848	0.097859935	0.120620065
626.48	0.22158	0.097859935	0.123720065
626.52	0.21649	0.097859936	0.118630064
626.56	0.2169	0.097859936	0.119040064
626.6	0.22612	0.097859936	0.128260064
626.64	0.22561	0.097859937	0.127750063
626.68	0.22459	0.097859937	0.126730063
626.72	0.23034	0.097859938	0.132480062
626.76	0.23111	0.097859938	0.133250062
626.8	0.22459	0.097859938	0.126730062
626.84	0.2195	0.097859939	0.121640061
626.88	0.21945	0.097859939	0.121590061
626.92	0.23665	0.09785994	0.13879006
626.96	0.21751	0.09785994	0.11965006
627	0.22433	0.09785994	0.12647006
627.04	0.22418	0.097859941	0.126320059
627.08	0.22535	0.097859941	0.127490059
627.12	0.22438	0.097859942	0.126520058
627.16	0.22433	0.097859942	0.126470058
627.2	0.22342	0.097859943	0.125560057
627.24	0.22438	0.097859943	0.126520057
627.28	0.21985	0.097859943	0.121990057
627.32	0.23569	0.097859944	0.137830056
627.36	0.23004	0.097859944	0.132180056
627.4	0.2253	0.097859945	0.127440055
627.44	0.22515	0.097859945	0.127290055
627.48	0.2255	0.097859945	0.127640055
627.52	0.22398	0.097859946	0.126120054
627.56	0.2336	0.097859946	0.135740054
627.6	0.23294	0.097859947	0.135080053
627.64	0.22255	0.097859947	0.124690053
627.68	0.22138	0.097859947	0.123520053
627.72	0.23365	0.097859948	0.135790052
627.76	0.23375	0.097859948	0.135890052
627.8	0.2225	0.097859949	0.124640051
627.84	0.2253	0.097859949	0.127440051
627.88	0.23207	0.09785995	0.13421005
627.92	0.22999	0.09785995	0.13213005
627.96	0.23289	0.09785995	0.13503005
628	0.21843	0.097859951	0.120570049
628.04	0.21848	0.097859951	0.120620049
628.08	0.22321	0.097859952	0.125350048
628.12	0.21873	0.097859952	0.120870048
628.16	0.22036	0.097859952	0.122500048
628.2	0.22525	0.097859953	0.127390047
628.24	0.21497	0.097859953	0.117110047
628.28	0.22265	0.097859954	0.124790046
628.32	0.20662	0.097859954	0.108760046
628.36	0.20636	0.097859954	0.108500046
628.4	0.21217	0.097859955	0.114310045
628.44	0.20524	0.097859955	0.107380045
628.48	0.20422	0.097859956	0.106360044
628.52	0.19516	0.097859956	0.097300044
628.56	0.19317	0.097859957	0.095310043
628.6	0.20163	0.097859957	0.103770043
628.64	0.20163	0.097859957	0.103770043
628.68	0.18778	0.097859958	0.089920042
628.72	0.18493	0.097859958	0.087070042
628.76	0.17927	0.097859959	0.081410041
628.8	0.18396	0.097859959	0.086100041
628.84	0.1695	0.097859959	0.071640041
628.88	0.16568	0.09785996	0.06782004
628.92	0.16583	0.09785996	0.06797004
628.96	0.16604	0.097859961	0.068180039
629	0.15565	0.097859961	0.057790039
629.04	0.15285	0.097859961	0.054990039
629.08	0.15214	0.097859962	0.054280038
629.12	0.14801	0.097859962	0.050150038
629.16	0.1415	0.097859963	0.043640037
629.2	0.14063	0.097859963	0.042770037
629.24	0.14033	0.097859963	0.042470037
629.28	0.13289	0.097859964	0.035030036
629.32	0.12851	0.097859964	0.030650036
629.36	0.12027	0.097859965	0.022410035
629.4	0.11981	0.097859965	0.021950035
629.44	0.12266	0.097859966	0.024800034
629.48	0.11604	0.097859966	0.018180034
629.52	0.11594	0.097859966	0.018080034
629.56	0.11309	0.097859967	0.015230033
629.6	0.11115	0.097859967	0.013290033
629.64	0.10642	0.097859968	0.008560032
629.68	0.10825	0.097859968	0.010390032
629.72	0.1084	0.097859968	0.010540032
629.76	0.10856	0.097859969	0.010700031
629.8	0.09893	0.097859969	0.001070031
629.84	0.09903	0.09785997	0.00117003
629.88	0.10255	0.09785997	0.00469003
629.92	0.09603	0.09785997	-0.00182997
629.96	0.09985	0.097859971	0.001990029
630	0.10362	0.097859971	0.005760029
630.04	0.0998	0.097859972	0.001940028
630.08	0.10178	0.097859972	0.003920028
630.12	0.10153	0.097859973	0.003670027
630.16	0.09216	0.097859973	-0.005699973
630.2	0.09786	0.097859973	2.66486E-08
630.24	0.09812	0.097859974	0.000260026
630.28	0.09786	0.097859974	2.58269E-08
630.32	0.09985	0.097859975	0.001990025
630.36	0.09613	0.097859975	-0.001729975
630.4	0.09613	0.097859975	-0.001729975
630.44	0.09695	0.097859976	-0.000909976
630.48	0.10265	0.097859976	0.004790024
630.52	0.10015	0.097859977	0.002290023
630.56	0.09425	0.097859977	-0.003609977
630.6	0.10082	0.097859977	0.002960023
630.64	0.09537	0.097859978	-0.002489978
630.68	0.09501	0.097859978	-0.002849978
630.72	0.09547	0.097859979	-0.002389979
630.76	0.09705	0.097859979	-0.000809979
630.8	0.10077	0.09785998	0.00291002
630.84	0.10275	0.09785998	0.00489002
630.88	0.10061	0.09785998	0.00275002
630.92	0.09822	0.097859981	0.000360019
630.96	0.10173	0.097859981	0.003870019
631	0.10148	0.097859982	0.003620018
631.04	0.10005	0.097859982	0.002190018
631.08	0.0998	0.097859982	0.001940018
631.12	0.09165	0.097859983	-0.006209983
631.16	0.10168	0.097859983	0.003820017
631.2	0.10092	0.097859984	0.003060016
631.24	0.10632	0.097859984	0.008460016
631.28	0.11395	0.097859984	0.016090016
631.32	0.11416	0.097859985	0.016300015
631.36	0.11421	0.097859985	0.016350015
631.4	0.12475	0.097859986	0.026890014
631.44	0.11701	0.097859986	0.019150014
631.48	0.12607	0.097859986	0.028210014
631.52	0.13493	0.097859987	0.037070013
631.56	0.13473	0.097859987	0.036870013
631.6	0.13498	0.097859988	0.037120012
631.64	0.14033	0.097859988	0.042470012
631.68	0.14226	0.097859989	0.044400011
631.72	0.15377	0.097859989	0.055910011
631.76	0.14995	0.097859989	0.052090011
631.8	0.14618	0.09785999	0.04832001
631.84	0.15	0.09785999	0.05214001
631.88	0.1498	0.097859991	0.051940009
631.92	0.15545	0.097859991	0.057590009
631.96	0.15071	0.097859991	0.052850009
632	0.15825	0.097859992	0.060390008
632.04	0.17525	0.097859992	0.077390008
632.08	0.17169	0.097859993	0.073830007
632.12	0.17169	0.097859993	0.073830007
632.16	0.18111	0.097859993	0.083250007
632.2	0.18116	0.097859994	0.083300006
632.24	0.17637	0.097859994	0.078510006
632.28	0.18966	0.097859995	0.091800005
632.32	0.18503	0.097859995	0.087170005
632.36	0.17658	0.097859996	0.078720004
632.4	0.16853	0.097859996	0.070670004
632.44	0.18096	0.097859996	0.083100004
632.48	0.18106	0.097859997	0.083200003
632.52	0.17347	0.097859997	0.075610003
632.56	0.16115	0.097859998	0.063290002
632.6	0.16028	0.097859998	0.062420002
632.64	0.15921	0.097859998	0.061350002
632.68	0.15738	0.097859999	0.059520001
632.72	0.14959	0.097859999	0.051730001
632.76	0.1498	0.09786	0.05194
632.8	0.15117	0.09786	0.05331
632.84	0.15545	0.09786	0.05759
632.88	0.14043	0.097860001	0.042569999
632.92	0.13921	0.097860001	0.041349999
632.96	0.14521	0.097860002	0.047349998
633	0.13503	0.097860002	0.037169998
633.04	0.13747	0.097860003	0.039609997
633.08	0.13763	0.097860003	0.039769997
633.12	0.1279	0.097860003	0.030039997
633.16	0.12363	0.097860004	0.025769996
633.2	0.13386	0.097860004	0.035999996
633.24	0.12459	0.097860005	0.026729995
633.28	0.12358	0.097860005	0.025719995
633.32	0.12154	0.097860005	0.023679995
633.36	0.12184	0.097860006	0.023979994
633.4	0.11293	0.097860006	0.015069994
633.44	0.1083	0.097860007	0.010439993
633.48	0.1028	0.097860007	0.004939993
633.52	0.10438	0.097860007	0.006519993
633.56	0.11125	0.097860008	0.013389992
633.6	0.09888	0.097860008	0.001019992
633.64	0.1001	0.097860009	0.002239991
633.68	0.10015	0.097860009	0.002289991
633.72	0.09893	0.09786001	0.00106999
633.76	0.10453	0.09786001	0.00666999
633.8	0.09909	0.09786001	0.00122999
633.84	0.1	0.097860011	0.002139989
633.88	0.09715	0.097860011	-0.000710011
633.92	0.0971	0.097860012	-0.000760012
633.96	0.09741	0.097860012	-0.000450012
634	0.09903	0.097860012	0.001169988
634.04	0.09985	0.097860013	0.001989987
634.08	0.10082	0.097860013	0.002959987
634.12	0.1	0.097860014	0.002139986
634.16	0.10474	0.097860014	0.006879986
634.2	0.09893	0.097860014	0.001069986
634.24	0.09888	0.097860015	0.001019985
634.28	0.09618	0.097860015	-0.001680015
634.32	0.09898	0.097860016	0.001119984
634.36	0.0971	0.097860016	-0.000760016
634.4	0.10066	0.097860016	0.002799984
634.44	0.1001	0.097860017	0.002239983
634.48	0.09797	0.097860017	0.000109983
634.52	0.09532	0.097860018	-0.002540018
634.56	0.09501	0.097860018	-0.002850018
634.6	0.09929	0.097860019	0.001429981
634.64	0.09995	0.097860019	0.002089981
634.68	0.09797	0.097860019	0.000109981
634.72	0.09435	0.09786002	-0.00351002
634.76	0.10372	0.09786002	0.00585998
634.8	0.09598	0.097860021	-0.001880021
634.84	0.09618	0.097860021	-0.001680021
634.88	0.10397	0.097860021	0.006109979
634.92	0.10087	0.097860022	0.003009978
634.96	0.09919	0.097860022	0.001329978
635	0.09725	0.097860023	-0.000610023
635.04	0.09802	0.097860023	0.000159977
635.08	0.09888	0.097860023	0.001019977
635.12	0.09557	0.097860024	-0.002290024
635.16	0.09328	0.097860024	-0.004580024
635.2	0.09415	0.097860025	-0.003710025
635.24	0.09435	0.097860025	-0.003510025
635.28	0.0973	0.097860026	-0.000560026
635.32	0.10092	0.097860026	0.003059974
635.36	0.09807	0.097860026	0.000209974
635.4	0.0943	0.097860027	-0.003560027
635.44	0.0943	0.097860027	-0.003560027
635.48	0.09705	0.097860028	-0.000810028
635.52	0.0941	0.097860028	-0.003760028
635.56	0.0971	0.097860028	-0.000760028
635.6	0.09333	0.097860029	-0.004530029
635.64	0.0941	0.097860029	-0.003760029
635.68	0.09685	0.09786003	-0.00101003
635.72	0.0969	0.09786003	-0.00096003
635.76	0.10189	0.09786003	0.00402997
635.8	0.09242	0.097860031	-0.005440031
635.84	0.09598	0.097860031	-0.001880031
635.88	0.097	0.097860032	-0.000860032
635.92	0.09629	0.097860032	-0.001570032
635.96	0.09695	0.097860033	-0.000910033
636	0.10097	0.097860033	0.003109967
636.04	0.10087	0.097860033	0.003009967
636.08	0.1	0.097860034	0.002139966
636.12	0.10082	0.097860034	0.002959966
636.16	0.0943	0.097860035	-0.003560035
636.2	0.10367	0.097860035	0.005809965
636.24	0.09888	0.097860035	0.001019965
636.28	0.09603	0.097860036	-0.001830036
636.32	0.09618	0.097860036	-0.001680036
636.36	0.09511	0.097860037	-0.002750037
636.4	0.0997	0.097860037	0.001839963
636.44	0.09618	0.097860037	-0.001680037
636.48	0.10005	0.097860038	0.002189962
636.52	0.10285	0.097860038	0.004989962
636.56	0.10183	0.097860039	0.003969961
636.6	0.10183	0.097860039	0.003969961
636.64	0.09975	0.09786004	0.00188996
636.68	0.09725	0.09786004	-0.00061004
636.72	0.10153	0.09786004	0.00366996
636.76	0.10178	0.097860041	0.003919959
636.8	0.09909	0.097860041	0.001229959
636.84	0.10077	0.097860042	0.002909958
636.88	0.09812	0.097860042	0.000259958
636.92	0.09802	0.097860042	0.000159958
636.96	0.09715	0.097860043	-0.000710043
637	0.10285	0.097860043	0.004989957
637.04	0.09893	0.097860044	0.001069956
637.08	0.10097	0.097860044	0.003109956
637.12	0.09603	0.097860044	-0.001830044
637.16	0.10097	0.097860045	0.003109955
637.2	0.10092	0.097860045	0.003059955
637.24	0.10148	0.097860046	0.003619954
637.28	0.09771	0.097860046	-0.000150046
637.32	0.10377	0.097860046	0.005909954
637.36	0.10082	0.097860047	0.002959953
637.4	0.10183	0.097860047	0.003969953
637.44	0.10005	0.097860048	0.002189952
637.48	0.10097	0.097860048	0.003109952
637.52	0.10077	0.097860049	0.002909951
637.56	0.097	0.097860049	-0.000860049
637.6	0.1026	0.097860049	0.004739951
637.64	0.09598	0.09786005	-0.00188005
637.68	0.09797	0.09786005	0.00010995
637.72	0.09888	0.097860051	0.001019949
637.76	0.11039	0.097860051	0.012529949
637.8	0.11024	0.097860051	0.012379949
637.84	0.10545	0.097860052	0.007589948
637.88	0.10733	0.097860052	0.009469948
637.92	0.10092	0.097860053	0.003059947
637.96	0.10295	0.097860053	0.005089947
638	0.11115	0.097860053	0.013289947
638.04	0.10265	0.097860054	0.004789946
638.08	0.1028	0.097860054	0.004939946
638.12	0.1054	0.097860055	0.007539945
638.16	0.11034	0.097860055	0.012479945
638.2	0.11039	0.097860056	0.012529944
638.24	0.10657	0.097860056	0.008709944
638.28	0.11487	0.097860056	0.017009944
638.32	0.11787	0.097860057	0.020009943
638.36	0.11217	0.097860057	0.014309943
638.4	0.11217	0.097860058	0.014309942
638.44	0.11787	0.097860058	0.020009942
638.48	0.12358	0.097860058	0.025719942
638.52	0.12541	0.097860059	0.027549941
638.56	0.12149	0.097860059	0.023629941
638.6	0.13203	0.09786006	0.03416994
638.64	0.13096	0.09786006	0.03309994
638.68	0.13111	0.09786006	0.03324994
638.72	0.12363	0.097860061	0.025769939
638.76	0.13854	0.097860061	0.040679939
638.8	0.14318	0.097860062	0.045319938
638.84	0.14832	0.097860062	0.050459938
638.88	0.14873	0.097860063	0.050869937
638.92	0.14516	0.097860063	0.047299937
638.96	0.14501	0.097860063	0.047149937
639	0.1443	0.097860064	0.046439936
639.04	0.15942	0.097860064	0.061559936
639.08	0.1527	0.097860065	0.054839935
639.12	0.16028	0.097860065	0.062419935
639.16	0.15738	0.097860065	0.059519935
639.2	0.167	0.097860066	0.069139934
639.24	0.16787	0.097860066	0.070009934
639.28	0.16762	0.097860067	0.069759933
639.32	0.1779	0.097860067	0.080039933
639.36	0.18386	0.097860067	0.085999933
639.4	0.18406	0.097860068	0.086199932
639.44	0.18401	0.097860068	0.086149932
639.48	0.19231	0.097860069	0.094449931
639.52	0.18513	0.097860069	0.087269931
639.56	0.18488	0.097860069	0.087019931
639.6	0.19995	0.09786007	0.10208993
639.64	0.20254	0.09786007	0.10467993
639.68	0.20616	0.097860071	0.108299929
639.72	0.21018	0.097860071	0.112319929
639.76	0.21868	0.097860072	0.120819928
639.8	0.20835	0.097860072	0.110489928
639.84	0.21945	0.097860072	0.121589928
639.88	0.21975	0.097860073	0.121889927
639.92	0.2255	0.097860073	0.127639927
639.96	0.22902	0.097860074	0.131159926