	m	t		
f	-0.00033861	0.378809		
				
_CCl4				
				
X in nm	Y Signal 	f(x)	y-f	
625.04	0.17632	0.167164206	0.009155794	
625.08	0.1752	0.167150661	0.008049339	
625.12	0.16706	0.167137117	-7.71E-05	
625.16	0.16695	0.167123572	-0.000173572	
625.2	0.17551	0.167110028	0.008399972	
625.24	0.1694	0.167096484	0.002303516	
625.28	0.18752	0.167082939	0.020437061	
625.32	0.18197	0.167069395	0.014900605	
625.36	0.16884	0.16705585	0.00178415	
625.4	0.17332	0.167042306	0.006277694	
625.44	0.17444	0.167028762	0.007411238	
625.48	0.17454	0.167015217	0.007524783	
625.52	0.18192	0.167001673	0.014918327	
625.56	0.16899	0.166988128	0.002001872	
625.6	0.16614	0.166974584	-0.000834584	
625.64	0.17215	0.16696104	0.00518896	
625.68	0.17042	0.166947495	0.003472505	
625.72	0.17138	0.166933951	0.004446049	
625.76	0.17149	0.166920406	0.004569594	
625.8	0.16777	0.166906862	0.000863138	
625.84	0.16777	0.166893318	0.000876682	
625.88	0.167	0.166879773	0.000120227	
625.92	0.17123	0.166866229	0.004363771	
625.96	0.16196	0.166852684	-0.004892684	
626	0.16767	0.16683914	0.00083086	
626.04	0.16782	0.166825596	0.000994404	
626.08	0.17052	0.166812051	0.003707949	
626.12	0.15555	0.166798507	-0.011248507	
626.16	0.17327	0.166784962	0.006485038	
626.2	0.17052	0.166771418	0.003748582	
626.24	0.17332	0.166757874	0.006562126	
626.28	0.17449	0.166744329	0.007745671	
626.32	0.17154	0.166730785	0.004809215	
626.36	0.17133	0.16671724	0.00461276	
626.4	0.17815	0.166703696	0.011446304	
626.44	0.1668	0.166690152	0.000109848	
626.48	0.17042	0.166676607	0.003743393	
626.52	0.16675	0.166663063	8.69E-05	
626.56	0.16507	0.166649518	-0.001579518	
626.6	0.16868	0.166635974	0.002044026	
626.64	0.16879	0.16662243	0.00216757	
626.68	0.1723	0.166608885	0.005691115	
626.72	0.17556	0.166595341	0.008964659	
626.76	0.17449	0.166581796	0.007908204	
626.8	0.16507	0.166568252	-0.001498252	
626.84	0.17128	0.166554708	0.004725292	
626.88	0.1752	0.166541163	0.008658837	
626.92	0.1753	0.166527619	0.008772381	
626.96	0.17143	0.166514074	0.004915926	
627	0.17658	0.16650053	0.01007947	
627.04	0.16431	0.166486986	-0.002176986	
627.08	0.1696	0.166473441	0.003126559	
627.12	0.17739	0.166459897	0.010930103	
627.16	0.17408	0.166446352	0.007633648	
627.2	0.17576	0.166432808	0.009327192	
627.24	0.17535	0.166419264	0.008930736	
627.28	0.17434	0.166405719	0.007934281	
627.32	0.1725	0.166392175	0.006107825	
627.36	0.17133	0.16637863	0.00495137	
627.4	0.17143	0.166365086	0.005064914	
627.44	0.17062	0.166351542	0.004268458	
627.48	0.16232	0.166337997	-0.004017997	
627.52	0.16207	0.166324453	-0.004254453	
627.56	0.17154	0.166310908	0.005229092	
627.6	0.16919	0.166297364	0.002892636	
627.64	0.17159	0.16628382	0.00530618	
627.68	0.16588	0.166270275	-0.000390275	
627.72	0.16237	0.166256731	-0.003886731	
627.76	0.1723	0.166243186	0.006056814	
627.8	0.16777	0.166229642	0.001540358	
627.84	0.16767	0.166216098	0.001453902	
627.88	0.1695	0.166202553	0.003297447	
627.92	0.1697	0.166189009	0.003510991	
627.96	0.17734	0.166175464	0.011164536	
628	0.17541	0.16616192	0.00924808	
628.04	0.16308	0.166148376	-0.003068376	
628.08	0.17164	0.166134831	0.005505169	
628.12	0.17143	0.166121287	0.005308713	
628.16	0.16772	0.166107742	0.001612258	
628.2	0.16135	0.166094198	-0.004744198	
628.24	0.15998	0.166080654	-0.006100654	
628.28	0.16604	0.166067109	-2.71E-05	
628.32	0.16135	0.166053565	-0.004703565	
628.36	0.164	0.16604002	-0.00204002	
628.4	0.1642	0.166026476	-0.001826476	
628.44	0.15809	0.166012932	-0.007922932	
628.48	0.16609	0.165999387	9.06E-05	
628.52	0.15641	0.165985843	-0.009575843	
628.56	0.15367	0.165972298	-0.012302298	
628.6	0.14908	0.165958754	-0.016878754	
628.64	0.15927	0.16594521	-0.00667521	
628.68	0.1499	0.165931665	-0.016031665	
628.72	0.14974	0.165918121	-0.016178121	
628.76	0.1499	0.165904576	-0.016004576	
628.8	0.1443	0.165891032	-0.021591032	
628.84	0.14318	0.165877488	-0.022697488	
628.88	0.13859	0.165863943	-0.027273943	
628.92	0.13941	0.165850399	-0.026440399	
628.96	0.13386	0.165836854	-0.031976854	
629	0.13391	0.16582331	-0.03191331	
629.04	0.12724	0.165809766	-0.038569766	
629.08	0.13218	0.165796221	-0.033616221	
629.12	0.12358	0.165782677	-0.042202677	
629.16	0.12729	0.165769132	-0.038479132	
629.2	0.11696	0.165755588	-0.048795588	
629.24	0.11298	0.165742044	-0.052762044	
629.28	0.1083	0.165728499	-0.057428499	
629.32	0.1082	0.165714955	-0.057514955	
629.36	0.11782	0.16570141	-0.04788141	
629.4	0.10937	0.165687866	-0.056317866	
629.44	0.10937	0.165674322	-0.056304322	
629.48	0.10825	0.165660777	-0.057410777	
629.52	0.1053	0.165647233	-0.060347233	
629.56	0.10637	0.165633688	-0.059263688	
629.6	0.10647	0.165620144	-0.059150144	
629.64	0.09919	0.1656066	-0.0664166	
629.68	0.10097	0.165593055	-0.064623055	
629.72	0.10275	0.165579511	-0.062829511	
629.76	0.10642	0.165565966	-0.059145966	
629.8	0.09797	0.165552422	-0.067582422	
629.84	0.09909	0.165538878	-0.066448878	
629.88	0.09883	0.165525333	-0.066695333	
629.92	0.09914	0.165511789	-0.066371789	
629.96	0.09557	0.165498244	-0.069928244	
630	0.10458	0.1654847	-0.0609047	
630.04	0.09328	0.165471156	-0.072191156	
630.08	0.09323	0.165457611	-0.072227611	
630.12	0.09613	0.165444067	-0.069314067	
630.16	0.09674	0.165430522	-0.068690522	
630.2	0.09695	0.165416978	-0.068466978	
630.24	0.09618	0.165403434	-0.069223434	
630.28	0.09797	0.165389889	-0.067419889	
630.32	0.10183	0.165376345	-0.063546345	
630.36	0.0973	0.1653628	-0.0680628	
630.4	0.09603	0.165349256	-0.069319256	
630.44	0.09903	0.165335712	-0.066305712	
630.48	0.09888	0.165322167	-0.066442167	
630.52	0.09608	0.165308623	-0.069228623	
630.56	0.09878	0.165295078	-0.066515078	
630.6	0.09802	0.165281534	-0.067261534	
630.64	0.10092	0.16526799	-0.06434799	
630.68	0.0973	0.165254445	-0.067954445	
630.72	0.09705	0.165240901	-0.068190901	
630.76	0.09695	0.165227356	-0.068277356	
630.8	0.09328	0.165213812	-0.071933812	
630.84	0.09252	0.165200268	-0.072680268	
630.88	0.09399	0.165186723	-0.071196723	
630.92	0.09522	0.165173179	-0.069953179	
630.96	0.09328	0.165159634	-0.071879634	
631	0.09776	0.16514609	-0.06738609	
631.04	0.09236	0.165132546	-0.072772546	
631.08	0.09231	0.165119001	-0.072809001	
631.12	0.09807	0.165105457	-0.067035457	
631.16	0.09898	0.165091912	-0.066111912	
631.2	0.0971	0.165078368	-0.067978368	
631.24	0.09888	0.165064824	-0.066184824	
631.28	0.09333	0.165051279	-0.071721279	
631.32	0.10178	0.165037735	-0.063257735	
631.36	0.10163	0.16502419	-0.06339419	
631.4	0.10178	0.165010646	-0.063230646	
631.44	0.10555	0.164997102	-0.059447102	
631.48	0.10265	0.164983557	-0.062333557	
631.52	0.10061	0.164970013	-0.064360013	
631.56	0.10158	0.164956468	-0.063376468	
631.6	0.09893	0.164942924	-0.066012924	
631.64	0.09639	0.16492938	-0.06853938	
631.68	0.09603	0.164915835	-0.068885835	
631.72	0.10845	0.164902291	-0.056452291	
631.76	0.10453	0.164888746	-0.060358746	
631.8	0.10932	0.164875202	-0.055555202	
631.84	0.11202	0.164861658	-0.052841658	
631.88	0.11202	0.164848113	-0.052828113	
631.92	0.11125	0.164834569	-0.053584569	
631.96	0.111	0.164821024	-0.053821024	
632	0.1053	0.16480748	-0.05950748	
632.04	0.11013	0.164793936	-0.054663936	
632.08	0.11584	0.164780391	-0.048940391	
632.12	0.11217	0.164766847	-0.052596847	
632.16	0.11115	0.164753302	-0.053603302	
632.2	0.11426	0.164739758	-0.050479758	
632.24	0.11431	0.164726214	-0.050416214	
632.28	0.11502	0.164712669	-0.049692669	
632.32	0.11334	0.164699125	-0.051359125	
632.36	0.10998	0.16468558	-0.05470558	
632.4	0.11767	0.164672036	-0.047002036	
632.44	0.12154	0.164658492	-0.043118492	
632.48	0.1138	0.164644947	-0.050844947	
632.52	0.12159	0.164631403	-0.043041403	
632.56	0.12174	0.164617858	-0.042877858	
632.6	0.11869	0.164604314	-0.045914314	
632.64	0.11675	0.16459077	-0.04784077	
632.68	0.11482	0.164577225	-0.049757225	
632.72	0.11782	0.164563681	-0.046743681	
632.76	0.11314	0.164550136	-0.051410136	
632.8	0.11614	0.164536592	-0.048396592	
632.84	0.11584	0.164523048	-0.048683048	
632.88	0.11293	0.164509503	-0.051579503	
632.92	0.11609	0.164495959	-0.048405959	
632.96	0.09791	0.164482414	-0.066572414	
633	0.1081	0.16446887	-0.05636887	
633.04	0.11298	0.164455326	-0.051475326	
633.08	0.10647	0.164441781	-0.057971781	
633.12	0.10637	0.164428237	-0.058058237	
633.16	0.10662	0.164414692	-0.057794692	
633.2	0.10448	0.164401148	-0.059921148	
633.24	0.10392	0.164387604	-0.060467604	
633.28	0.10071	0.164374059	-0.063664059	
633.32	0.1083	0.164360515	-0.056060515	
633.36	0.10301	0.16434697	-0.06133697	
633.4	0.1081	0.164333426	-0.056233426	
633.44	0.1082	0.164319882	-0.056119882	
633.48	0.10626	0.164306337	-0.058046337	
633.52	0.10377	0.164292793	-0.060522793	
633.56	0.09929	0.164279248	-0.064989248	
633.6	0.10005	0.164265704	-0.064215704	
633.64	0.09888	0.16425216	-0.06537216	
633.68	0.09695	0.164238615	-0.067288615	
633.72	0.097	0.164225071	-0.067225071	
633.76	0.10372	0.164211526	-0.060491526	
633.8	0.09318	0.164197982	-0.071017982	
633.84	0.1001	0.164184438	-0.064084438	
633.88	0.0913	0.164170893	-0.072870893	
633.92	0.0942	0.164157349	-0.069957349	
633.96	0.0941	0.164143804	-0.070043804	
634	0.10021	0.16413026	-0.06392026	
634.04	0.10005	0.164116716	-0.064066716	
634.08	0.09685	0.164103171	-0.067253171	
634.12	0.09547	0.164089627	-0.068619627	
634.16	0.09827	0.164076082	-0.065806082	
634.2	0.0914	0.164062538	-0.072662538	
634.24	0.09405	0.164048994	-0.069998994	
634.28	0.09893	0.164035449	-0.065105449	
634.32	0.09934	0.164021905	-0.064681905	
634.36	0.09603	0.16400836	-0.06797836	
634.4	0.10071	0.163994816	-0.063284816	
634.44	0.09308	0.163981272	-0.070901272	
634.48	0.09593	0.163967727	-0.068037727	
634.52	0.09216	0.163954183	-0.071794183	
634.56	0.10194	0.163940638	-0.062000638	
634.6	0.10163	0.163927094	-0.062297094	
634.64	0.09685	0.16391355	-0.06706355	
634.68	0.09435	0.163900005	-0.069550005	
634.72	0.09608	0.163886461	-0.067806461	
634.76	0.097	0.163872916	-0.066872916	
634.8	0.1	0.163859372	-0.063859372	
634.84	0.1	0.163845828	-0.063845828	
634.88	0.10087	0.163832283	-0.062962283	
634.92	0.10087	0.163818739	-0.062948739	
634.96	0.09328	0.163805194	-0.070525194	
635	0.09705	0.16379165	-0.06674165	
635.04	0.10051	0.163778106	-0.063268106	
635.08	0.09639	0.163764561	-0.067374561	
635.12	0.09323	0.163751017	-0.070521017	
635.16	0.09491	0.163737472	-0.068827472	
635.2	0.09496	0.163723928	-0.068763928	
635.24	0.09527	0.163710384	-0.068440384	
635.28	0.09812	0.163696839	-0.065576839	
635.32	0.09898	0.163683295	-0.064703295	
635.36	0.0971	0.16366975	-0.06656975	
635.4	0.09791	0.163656206	-0.065746206	
635.44	0.10005	0.163642662	-0.063592662	
635.48	0.09791	0.163629117	-0.065719117	
635.52	0.09791	0.163615573	-0.065705573	
635.56	0.1027	0.163602028	-0.060902028	
635.6	0.10372	0.163588484	-0.059868484	
635.64	0.09812	0.16357494	-0.06545494	
635.68	0.09338	0.163561395	-0.070181395	
635.72	0.0942	0.163547851	-0.069347851	
635.76	0.09323	0.163534306	-0.070304306	
635.8	0.09313	0.163520762	-0.070390762	
635.84	0.09608	0.163507218	-0.067427218	
635.88	0.10204	0.163493673	-0.061453673	
635.92	0.1001	0.163480129	-0.063380129	
635.96	0.09893	0.163466584	-0.064536584	
636	0.0943	0.16345304	-0.06915304	
636.04	0.09155	0.163439496	-0.071889496	
636.08	0.09119	0.163425951	-0.072235951	
636.12	0.09038	0.163412407	-0.073032407	
636.16	0.0941	0.163398862	-0.069298862	
636.2	0.09679	0.163385318	-0.066595318	
636.24	0.09618	0.163371774	-0.067191774	
636.28	0.09634	0.163358229	-0.067018229	
636.32	0.09715	0.163344685	-0.066194685	
636.36	0.1	0.16333114	-0.06333114	
636.4	0.09995	0.163317596	-0.063367596	
636.44	0.09216	0.163304052	-0.071144052	
636.48	0.08773	0.163290507	-0.075560507	
636.52	0.09522	0.163276963	-0.068056963	
636.56	0.09629	0.163263418	-0.066973418	
636.6	0.09797	0.163249874	-0.065279874	
636.64	0.10204	0.16323633	-0.06119633	
636.68	0.10194	0.163222785	-0.061282785	
636.72	0.1001	0.163209241	-0.063109241	
636.76	0.09532	0.163195696	-0.067875696	
636.8	0.09888	0.163182152	-0.064302152	
636.84	0.08967	0.163168608	-0.073498608	
636.88	0.0972	0.163155063	-0.065955063	
636.92	0.09506	0.163141519	-0.068081519	
636.96	0.09496	0.163127974	-0.068167974	
637	0.10087	0.16311443	-0.06224443	
637.04	0.08946	0.163100886	-0.073640886	
637.08	0.0945	0.163087341	-0.068587341	
637.12	0.09298	0.163073797	-0.070093797	
637.16	0.10199	0.163060252	-0.061070252	
637.2	0.09038	0.163046708	-0.072666708	
637.24	0.10285	0.163033164	-0.060183164	
637.28	0.10245	0.163019619	-0.060569619	
637.32	0.09878	0.163006075	-0.064226075	
637.36	0.09812	0.16299253	-0.06487253	
637.4	0.09695	0.162978986	-0.066028986	
637.44	0.09527	0.162965442	-0.067695442	
637.48	0.09878	0.162951897	-0.064171897	
637.52	0.10087	0.162938353	-0.062068353	
637.56	0.10107	0.162924808	-0.061854808	
637.6	0.09797	0.162911264	-0.064941264	
637.64	0.0971	0.16289772	-0.06579772	
637.68	0.09328	0.162884175	-0.069604175	
637.72	0.10372	0.162870631	-0.059150631	
637.76	0.10082	0.162857086	-0.062037086	
637.8	0.09878	0.162843542	-0.064063542	
637.84	0.10545	0.162829998	-0.057379998	
637.88	0.10535	0.162816453	-0.057466453	
637.92	0.09888	0.162802909	-0.063922909	
637.96	0.0971	0.162789364	-0.065689364	
638	0.10087	0.16277582	-0.06190582	
638.04	0.10173	0.162762276	-0.061032276	
638.08	0.0969	0.162748731	-0.065848731	
638.12	0.09812	0.162735187	-0.064615187	
638.16	0.09797	0.162721642	-0.064751642	
638.2	0.10387	0.162708098	-0.058838098	
638.24	0.10626	0.162694554	-0.056434554	
638.28	0.09975	0.162681009	-0.062931009	
638.32	0.10738	0.162667465	-0.055287465	
638.36	0.10744	0.16265392	-0.05521392	
638.4	0.10642	0.162640376	-0.056220376	
638.44	0.10637	0.162626832	-0.056256832	
638.48	0.10362	0.162613287	-0.058993287	
638.52	0.11013	0.162599743	-0.052469743	
638.56	0.10922	0.162586198	-0.053366198	
638.6	0.11298	0.162572654	-0.049592654	
638.64	0.11202	0.16255911	-0.05053911	
638.68	0.11696	0.162545565	-0.045585565	
638.72	0.11492	0.162532021	-0.047612021	
638.76	0.11487	0.162518476	-0.047648476	
638.8	0.11599	0.162504932	-0.046514932	
638.84	0.11492	0.162491388	-0.047571388	
638.88	0.11421	0.162477843	-0.048267843	
638.92	0.12174	0.162464299	-0.040724299	
638.96	0.12444	0.162450754	-0.038010754	
639	0.12918	0.16243721	-0.03325721	
639.04	0.12907	0.162423666	-0.033353666	
639.08	0.13213	0.162410121	-0.030280121	
639.12	0.13213	0.162396577	-0.030266577	
639.16	0.13284	0.162383032	-0.029543032	
639.2	0.13177	0.162369488	-0.030599488	
639.24	0.13564	0.162355944	-0.026715944	
639.28	0.14231	0.162342399	-0.020032399	
639.32	0.14068	0.162328855	-0.021648855	
639.36	0.14033	0.16231531	-0.02198531	
639.4	0.14328	0.162301766	-0.019021766	
639.44	0.14043	0.162288222	-0.021858222	
639.48	0.14812	0.162274677	-0.014154677	
639.52	0.14343	0.162261133	-0.018831133	
639.56	0.16039	0.162247588	-0.001857588	
639.6	0.15723	0.162234044	-0.005004044	
639.64	0.15733	0.1622205	-0.0048905	
639.68	0.15458	0.162206955	-0.007626955	
639.72	0.1613	0.162193411	-0.000893411	
639.76	0.16507	0.162179866	0.002890134	
639.8	0.16212	0.162166322	-4.63E-05	
639.84	0.16889	0.162152778	0.006737222	
639.88	0.16314	0.162139233	0.001000767	
639.92	0.16298	0.162125689	0.000854311	
639.96	0.16588	0.162112144	0.003767856	
640	0.17072	0.1620986	0.0086214	
640.04	0.18116	0.162085056	0.019074944	
640.08	0.18182	0.162071511	0.019748489	
640.12	0.18279	0.162057967	0.020732033	
640.16	0.18014	0.162044422	0.018095578	
640.2	0.19236	0.162030878	0.030329122	
640.24	0.19231	0.162017334	0.030292666	
640.28	0.18849	0.162003789	0.026486211	
640.32	0.18869	0.161990245	0.026699755	
640.36	0.19704	0.1619767	0.0350633	
640.4	0.19511	0.161963156	0.033146844	
640.44	0.20066	0.161949612	0.038710388	
640.48	0.19903	0.161936067	0.037093933	
640.52	0.19893	0.161922523	0.037007477	
640.56	0.20152	0.161908978	0.039611022	
640.6	0.21782	0.161895434	0.055924566	
640.64	0.20463	0.16188189	0.04274811	
640.68	0.21395	0.161868345	0.052081655	
640.72	0.22118	0.161854801	0.059325199	
640.76	0.2223	0.161841256	0.060458744	
640.8	0.22235	0.161827712	0.060522288	
640.84	0.23401	0.161814168	0.072195832	
640.88	0.23553	0.161800623	0.073729377	
640.92	0.24388	0.161787079	0.082092921	
640.96	0.25733	0.161773534	0.095556466	
641	0.27336	0.16175999	0.11160001	
641.04	0.26695	0.161746446	0.105203554	
641.08	0.28024	0.161732901	0.118507099	
641.12	0.27973	0.161719357	0.118010643	
641.16	0.28721	0.161705812	0.125504188	
641.2	0.29678	0.161692268	0.135087732	
641.24	0.30911	0.161678724	0.147431276	
641.28	0.29409	0.161665179	0.132424821	
641.32	0.29867	0.161651635	0.137018365	
641.36	0.31211	0.16163809	0.15047191	
641.4	0.31226	0.161624546	0.150635454	
641.44	0.31206	0.161611002	0.150448998	
641.48	0.29225	0.161597457	0.130652543	
641.52	0.30524	0.161583913	0.143656087	
641.56	0.31308	0.161570368	0.151509632	
641.6	0.31639	0.161556824	0.154833176	
641.64	0.30921	0.16154328	0.14766672	
641.68	0.3006	0.161529735	0.139070265	
641.72	0.3005	0.161516191	0.138983809	
641.76	0.3034	0.161502646	0.141897354	
641.8	0.30345	0.161489102	0.141960898	
641.84	0.30829	0.161475558	0.146814442	
641.88	0.28558	0.161462013	0.124117987	
641.92	0.29139	0.161448469	0.129941531	
641.96	0.27983	0.161434924	0.118395076	
642	0.28014	0.16142138	0.11871862	
642.04	0.27723	0.161407836	0.115822164	
642.08	0.27708	0.161394291	0.115685709	
642.12	0.25585	0.161380747	0.094469253	
642.16	0.25717	0.161367202	0.095802798	
642.2	0.25529	0.161353658	0.093936342	
642.24	0.24709	0.161340114	0.085749886	
642.28	0.24704	0.161326569	0.085713431	
642.32	0.24414	0.161313025	0.082826975	
642.36	0.24409	0.16129948	0.08279052	
642.4	0.23762	0.161285936	0.076334064	
642.44	0.22622	0.161272392	0.064947608	
642.48	0.22067	0.161258847	0.059411153	
642.52	0.20835	0.161245303	0.047104697	
642.56	0.2055	0.161231758	0.044268242	
642.6	0.20544	0.161218214	0.044221786	
642.64	0.21502	0.16120467	0.05381533	
642.68	0.21318	0.161191125	0.051988875	
642.72	0.21293	0.161177581	0.051752419	
642.76	0.20921	0.161164036	0.048045964	
642.8	0.20183	0.161150492	0.040679508	
642.84	0.20916	0.161136948	0.048023052	
642.88	0.20926	0.161123403	0.048136597	
642.92	0.20529	0.161109859	0.044180141	
642.96	0.20534	0.161096314	0.044243686	
643	0.20102	0.16108277	0.03993723	
643.04	0.21232	0.161069226	0.051250774	
643.08	0.19725	0.161055681	0.036194319	
643.12	0.20178	0.161042137	0.040737863	
643.16	0.19501	0.161028592	0.033981408	
643.2	0.19536	0.161015048	0.034344952	
643.24	0.19979	0.161001504	0.038788496	
643.28	0.19536	0.160987959	0.034372041	
643.32	0.19801	0.160974415	0.037035585	
643.36	0.20453	0.16096087	0.04356913	
643.4	0.20081	0.160947326	0.039862674	
643.44	0.19699	0.160933782	0.036056218	
643.48	0.1972	0.160920237	0.036279763	
643.52	0.19903	0.160906693	0.038123307	
643.56	0.19725	0.160893148	0.036356852	
643.6	0.19068	0.160879604	0.029800396	
643.64	0.20193	0.16086606	0.04106394	
643.68	0.18584	0.160852515	0.024987485	
643.72	0.19699	0.160838971	0.036151029	
643.76	0.19725	0.160825426	0.036424574	
643.8	0.19821	0.160811882	0.037398118	
643.84	0.20234	0.160798338	0.041541662	
643.88	0.19017	0.160784793	0.029385207	
643.92	0.19811	0.160771249	0.037338751	
643.96	0.20275	0.160757704	0.041992296	
644	0.20056	0.16074416	0.03981584	
644.04	0.20926	0.160730616	0.048529384	
644.08	0.20931	0.160717071	0.048592929	
644.12	0.20071	0.160703527	0.040006473	
644.16	0.20005	0.160689982	0.039360018	
644.2	0.20356	0.160676438	0.042883562	
644.24	0.20443	0.160662894	0.043767106	
644.28	0.20921	0.160649349	0.048560651	
644.32	0.20631	0.160635805	0.045674195	
644.36	0.20626	0.16062226	0.04563774	
644.4	0.2058	0.160608716	0.045191284	
644.44	0.20636	0.160595172	0.045764828	
644.48	0.21084	0.160581627	0.050258373	
644.52	0.22525	0.160568083	0.064681917	
644.56	0.22352	0.160554538	0.062965462	
644.6	0.22444	0.160540994	0.063899006	
644.64	0.22433	0.16052745	0.06380255	
644.68	0.2168	0.160513905	0.056286095	
644.72	0.23467	0.160500361	0.074169639	
644.76	0.24714	0.160486816	0.086653184	
644.8	0.24119	0.160473272	0.080716728	
644.84	0.24882	0.160459728	0.088360272	
644.88	0.24882	0.160446183	0.088373817	
644.92	0.26181	0.160432639	0.101377361	
644.96	0.26242	0.160419094	0.102000906	
645	0.27815	0.16040555	0.11774445	
645.04	0.27143	0.160392006	0.111037994	
645.08	0.26939	0.160378461	0.109011539	
645.12	0.27224	0.160364917	0.111875083	
645.16	0.28752	0.160351372	0.127168628	
645.2	0.29699	0.160337828	0.136652172	
645.24	0.29673	0.160324284	0.136405716	
645.28	0.29297	0.160310739	0.132659261	
645.32	0.31771	0.160297195	0.157412805	
645.36	0.30651	0.16028365	0.14622635	
645.4	0.30361	0.160270106	0.143339894	
645.44	0.30641	0.160256562	0.146153438	
645.48	0.31465	0.160243017	0.154406983	
645.52	0.30651	0.160229473	0.146280527	
645.56	0.30646	0.160215928	0.146244072	
645.6	0.30916	0.160202384	0.148957616	
645.64	0.31297	0.16018884	0.15278116	
645.68	0.30834	0.160175295	0.148164705	
645.72	0.3089	0.160161751	0.148738249	
645.76	0.30732	0.160148206	0.147171794	
645.8	0.2919	0.160134662	0.131765338	
645.84	0.29195	0.160121118	0.131828882	
645.88	0.30804	0.160107573	0.147932427	
645.92	0.28645	0.160094029	0.126355971	
645.96	0.28655	0.160080484	0.126469516	
646	0.28655	0.16006694	0.12648306	
646.04	0.28563	0.160053396	0.125576604	
646.08	0.2697	0.160039851	0.109660149	
646.12	0.2697	0.160026307	0.109673693	
646.16	0.25544	0.160012762	0.095427238	
646.2	0.26094	0.159999218	0.100940782	
646.24	0.24383	0.159985674	0.083844326	
646.28	0.2422	0.159972129	0.082227871	
646.32	0.23085	0.159958585	0.070891415	
646.36	0.231	0.15994504	0.07105496	
646.4	0.22057	0.159931496	0.060638504	
646.44	0.22067	0.159917952	0.060752048	
646.48	0.21792	0.159904407	0.058015593	
646.52	0.21797	0.159890863	0.058079137	
646.56	0.21105	0.159877318	0.051172682	
646.6	0.21497	0.159863774	0.055106226	
646.64	0.2114	0.15985023	0.05154977	
646.68	0.19816	0.159836685	0.038323315	
646.72	0.19806	0.159823141	0.038236859	
646.76	0.20168	0.159809596	0.041870404	
646.8	0.20183	0.159796052	0.042033948	
646.84	0.19536	0.159782508	0.035577492	
646.88	0.2001	0.159768963	0.040331037	
646.92	0.19699	0.159755419	0.037234581	
646.96	0.1865	0.159741874	0.026758126	
647	0.1863	0.15972833	0.02657167	
647.04	0.19424	0.159714786	0.034525214	
647.08	0.20086	0.159701241	0.041158759	
647.12	0.19155	0.159687697	0.031862303	
647.16	0.18783	0.159674152	0.028155848	
647.2	0.19521	0.159660608	0.035549392	
647.24	0.19246	0.159647064	0.032812936	
647.28	0.18401	0.159633519	0.024376481	
647.32	0.18386	0.159619975	0.024240025	
647.36	0.19526	0.15960643	0.03565357	
647.4	0.19516	0.159592886	0.035567114	
647.44	0.19613	0.159579342	0.036550658	
647.48	0.19241	0.159565797	0.032844203	
647.52	0.18493	0.159552253	0.025377747	
647.56	0.19241	0.159538708	0.032871292	
647.6	0.19236	0.159525164	0.032834836	
647.64	0.18406	0.15951162	0.02454838	
647.68	0.19134	0.159498075	0.031841925	
647.72	0.18757	0.159484531	0.028085469	
647.76	0.18508	0.159470986	0.025609014	
647.8	0.18482	0.159457442	0.025362558	
647.84	0.19241	0.159443898	0.032966102	
647.88	0.1781	0.159430353	0.018669647	
647.92	0.1781	0.159416809	0.018683191	
647.96	0.18457	0.159403264	0.025166736	
648	0.17826	0.15938972	0.01887028	
648.04	0.18656	0.159376176	0.027183824	
648.08	0.17841	0.159362631	0.019047369	
648.12	0.18029	0.159349087	0.020940913	
648.16	0.17541	0.159335542	0.016074458	
648.2	0.17535	0.159321998	0.016028002	
648.24	0.18752	0.159308454	0.028211546	
648.28	0.19048	0.159294909	0.031185091	
648.32	0.19323	0.159281365	0.033948635	
648.36	0.18401	0.15926782	0.02474218	
648.4	0.18482	0.159254276	0.025565724	
648.44	0.18386	0.159240732	0.024619268	
648.48	0.18396	0.159227187	0.024732813	
648.52	0.18401	0.159213643	0.024796357	
648.56	0.17912	0.159200098	0.019919902	
648.6	0.19715	0.159186554	0.037963446	
648.64	0.19221	0.15917301	0.03303699	
648.68	0.18309	0.159159465	0.023930535	
648.72	0.18488	0.159145921	0.025734079	
648.76	0.19888	0.159132376	0.039747624	
648.8	0.19883	0.159118832	0.039711168	
648.84	0.18569	0.159105288	0.026584712	
648.88	0.18126	0.159091743	0.022168257	
648.92	0.1888	0.159078199	0.029721801	
648.96	0.19053	0.159064654	0.031465346	
649	0.18834	0.15905111	0.02928889	
649.04	0.17734	0.159037566	0.018302434	
649.08	0.17739	0.159024021	0.018365979	
649.12	0.18279	0.159010477	0.023779523	
649.16	0.18778	0.158996932	0.028783068	
649.2	0.18299	0.158983388	0.024006612	
649.24	0.18309	0.158969844	0.024120156	
649.28	0.18966	0.158956299	0.030703701	
649.32	0.17709	0.158942755	0.018147245	
649.36	0.18757	0.15892921	0.02864079	
649.4	0.18737	0.158915666	0.028454334	
649.44	0.18386	0.158902122	0.024957878	
649.48	0.18778	0.158888577	0.028891423	
649.52	0.19032	0.158875033	0.031444967	
649.56	0.18269	0.158861488	0.023828512	
649.6	0.18752	0.158847944	0.028672056	
649.64	0.19587	0.1588344	0.0370356	
649.68	0.19618	0.158820855	0.037359145	
649.72	0.18269	0.158807311	0.023882689	
649.76	0.19806	0.158793766	0.039266234	
649.8	0.1893	0.158780222	0.030519778	
649.84	0.19027	0.158766678	0.031503322	
649.88	0.19323	0.158753133	0.034476867	
649.92	0.18376	0.158739589	0.025020411	
649.96	0.18381	0.158726044	0.025083956	
650	0.18569	0.1587125	0.0269775	
650.04	0.19516	0.158698956	0.036461044	
650.08	0.19058	0.158685411	0.031894589	
650.12	0.18864	0.158671867	0.029968133	
650.16	0.19735	0.158658322	0.038691678	
650.2	0.18309	0.158644778	0.024445222	
650.24	0.19618	0.158631234	0.037548766	
650.28	0.19582	0.158617689	0.037202311	
650.32	0.19251	0.158604145	0.033905855	
650.36	0.19511	0.1585906	0.0365194	
650.4	0.18951	0.158577056	0.030932944	
650.44	0.20056	0.158563512	0.041996488	
650.48	0.19419	0.158549967	0.035640033	
650.52	0.19343	0.158536423	0.034893577	
650.56	0.19312	0.158522878	0.034597122	
650.6	0.19526	0.158509334	0.036750666	
650.64	0.19053	0.15849579	0.03203421	
650.68	0.19872	0.158482245	0.040237755	
650.72	0.20117	0.158468701	0.042701299	
650.76	0.20076	0.158455156	0.042304844	
650.8	0.19872	0.158441612	0.040278388	
650.84	0.19867	0.158428068	0.040241932	
650.88	0.19597	0.158414523	0.037555477	
650.92	0.214	0.158400979	0.055599021	
650.96	0.21013	0.158387434	0.051742566	
651	0.21771	0.15837389	0.05933611	
651.04	0.22036	0.158360346	0.061999654	
651.08	0.2112	0.158346801	0.052853199	
651.12	0.21497	0.158333257	0.056636743	
651.16	0.21476	0.158319712	0.056440288	
651.2	0.21201	0.158306168	0.053703832	
651.24	0.2255	0.158292624	0.067207376	
651.28	0.21975	0.158279079	0.061470921	
651.32	0.22912	0.158265535	0.070854465	
651.36	0.22484	0.15825199	0.06658801	
651.4	0.21853	0.158238446	0.060291554	
651.44	0.21858	0.158224902	0.060355098	
651.48	0.22973	0.158211357	0.071518643	
651.52	0.22057	0.158197813	0.062372187	
651.56	0.23762	0.158184268	0.079435732	
651.6	0.2253	0.158170724	0.067129276	
651.64	0.21965	0.15815718	0.06149282	
651.68	0.22886	0.158143635	0.070716365	
651.72	0.22255	0.158130091	0.064419909	
651.76	0.22225	0.158116546	0.064133454	
651.8	0.22622	0.158103002	0.068116998	
651.84	0.22362	0.158089458	0.065530542	
651.88	0.22871	0.158075913	0.070634087	
651.92	0.21863	0.158062369	0.060567631	
651.96	0.21675	0.158048824	0.058701176	
652	0.21797	0.15803528	0.05993472	
652.04	0.21771	0.158021736	0.059688264	
652.08	0.22143	0.158008191	0.063421809	
652.12	0.2141	0.157994647	0.056105353	
652.16	0.21115	0.157981102	0.053168898	
652.2	0.20264	0.157967558	0.044672442	
652.24	0.20748	0.157954014	0.049525986	
652.28	0.20112	0.157940469	0.043179531	
652.32	0.20117	0.157926925	0.043243075	
652.36	0.19684	0.15791338	0.03892662	
652.4	0.20015	0.157899836	0.042250164	
652.44	0.1892	0.157886292	0.031313708	
652.48	0.20076	0.157872747	0.042887253	
652.52	0.19995	0.157859203	0.042090797	
652.56	0.19424	0.157845658	0.036394342	
652.6	0.18264	0.157832114	0.024807886	
652.64	0.18269	0.15781857	0.02487143	
652.68	0.19618	0.157805025	0.038374975	
652.72	0.18304	0.157791481	0.025248519	
652.76	0.18895	0.157777936	0.031172064	
652.8	0.18202	0.157764392	0.024255608	
652.84	0.18391	0.157750848	0.026159152	
652.88	0.18849	0.157737303	0.030752697	
652.92	0.18844	0.157723759	0.030716241	
652.96	0.18752	0.157710214	0.029809786	
653	0.17525	0.15769667	0.01755333	
653.04	0.18391	0.157683126	0.026226874	
653.08	0.18488	0.157669581	0.027210419	
653.12	0.1865	0.157656037	0.028843963	
653.16	0.18574	0.157642492	0.028097508	
653.2	0.17663	0.157628948	0.019001052	
653.24	0.17617	0.157615404	0.018554596	
653.28	0.18961	0.157601859	0.032008141	
653.32	0.18493	0.157588315	0.027341685	
653.36	0.17989	0.15757477	0.02231523	
653.4	0.18202	0.157561226	0.024458774	
653.44	0.18946	0.157547682	0.031912318	
653.48	0.18284	0.157534137	0.025305863	
653.52	0.18284	0.157520593	0.025319407	
653.56	0.17174	0.157507048	0.014232952	
653.6	0.18961	0.157493504	0.032116496	
653.64	0.17815	0.15747996	0.02067004	
653.68	0.18569	0.157466415	0.028223585	
653.72	0.17922	0.157452871	0.021767129	
653.76	0.18503	0.157439326	0.027590674	
653.8	0.18447	0.157425782	0.027044218	
653.84	0.19231	0.157412238	0.034897762	
653.88	0.18864	0.157398693	0.031241307	
653.92	0.17154	0.157385149	0.014154851	
653.96	0.18218	0.157371604	0.024808396	
654	0.1781	0.15735806	0.02074194	
654.04	0.17627	0.157344516	0.018925484	
654.08	0.18564	0.157330971	0.028309029	
654.12	0.18594	0.157317427	0.028622573	
654.16	0.18116	0.157303882	0.023856118	
654.2	0.17831	0.157290338	0.021019662	
654.24	0.18859	0.157276794	0.031313206	
654.28	0.18299	0.157263249	0.025726751	
654.32	0.18208	0.157249705	0.024830295	
654.36	0.18085	0.15723616	0.02361384	
654.4	0.18106	0.157222616	0.023837384	
654.44	0.1865	0.157209072	0.029290928	
654.48	0.17714	0.157195527	0.019944473	
654.52	0.18101	0.157181983	0.023828017	
654.56	0.18284	0.157168438	0.025671562	
654.6	0.18488	0.157154894	0.027725106	
654.64	0.18192	0.15714135	0.02477865	
654.68	0.18197	0.157127805	0.024842195	
654.72	0.18202	0.157114261	0.024905739	
654.76	0.17759	0.157100716	0.020489284	
654.8	0.18218	0.157087172	0.025092828	
654.84	0.19175	0.157073628	0.034676372	
654.88	0.19058	0.157060083	0.033519917	
654.92	0.18656	0.157046539	0.029513461	
654.96	0.17983	0.157032994	0.022797006	
655	0.17994	0.15701945	0.02292055	
655.04	0.18564	0.157005906	0.028634094	
655.08	0.18004	0.156992361	0.023047639	
655.12	0.18274	0.156978817	0.025761183	
655.16	0.17739	0.156965272	0.020424728	
655.2	0.17922	0.156951728	0.022268272	
655.24	0.17821	0.156938184	0.021271816	
655.28	0.17795	0.156924639	0.021025361	
655.32	0.18773	0.156911095	0.030818905	
655.36	0.1725	0.15689755	0.01560245	
655.4	0.18579	0.156884006	0.028905994	
655.44	0.18956	0.156870462	0.032689538	
655.48	0.17999	0.156856917	0.023133083	
655.52	0.17215	0.156843373	0.015306627	
655.56	0.17703	0.156829828	0.020200172	
655.6	0.17719	0.156816284	0.020373716	
655.64	0.1779	0.15680274	0.02109726	
655.68	0.17622	0.156789195	0.019430805	
655.72	0.17057	0.156775651	0.013794349	
655.76	0.18019	0.156762106	0.023427894	
655.8	0.178	0.156748562	0.021251438	
655.84	0.18014	0.156735018	0.023404982	
655.88	0.17999	0.156721473	0.023268527	
655.92	0.18681	0.156707929	0.030102071	
655.96	0.17439	0.156694384	0.017695616	
656	0.18656	0.15668084	0.02987916	
656.04	0.1808	0.156667296	0.024132704	
656.08	0.18213	0.156653751	0.025476249	
656.12	0.17729	0.156640207	0.020649793	
656.16	0.17698	0.156626662	0.020353338	
656.2	0.17917	0.156613118	0.022556882	
656.24	0.18488	0.156599574	0.028280426	
656.28	0.18106	0.156586029	0.024473971	
656.32	0.17535	0.156572485	0.018777515	
656.36	0.17612	0.15655894	0.01956106	
656.4	0.17408	0.156545396	0.017534604	
656.44	0.17907	0.156531852	0.022538148	
656.48	0.17907	0.156518307	0.022551693	
656.52	0.17632	0.156504763	0.019815237	
656.56	0.17627	0.156491218	0.019778782	
656.6	0.17169	0.156477674	0.015212326	
656.64	0.18859	0.15646413	0.03212587	
656.68	0.18284	0.156450585	0.026389415	
656.72	0.18014	0.156437041	0.023702959	
656.76	0.17994	0.156423496	0.023516504	
656.8	0.17744	0.156409952	0.021030048	
656.84	0.17337	0.156396408	0.016973592	
656.88	0.17709	0.156382863	0.020707137	
656.92	0.17052	0.156369319	0.014150681	
656.96	0.1832	0.156355774	0.026844226	
657	0.18182	0.15634223	0.02547777	
657.04	0.18096	0.156328686	0.024631314	
657.08	0.1809	0.156315141	0.024584859	
657.12	0.17815	0.156301597	0.021848403	
657.16	0.17882	0.156288052	0.022531948	
657.2	0.18574	0.156274508	0.029465492	
657.24	0.17927	0.156260964	0.023009036	
657.28	0.17831	0.156247419	0.022062581	
657.32	0.18096	0.156233875	0.024726125	
657.36	0.18116	0.15622033	0.02493967	
657.4	0.17235	0.156206786	0.016143214	
657.44	0.17744	0.156193242	0.021246758	
657.48	0.17846	0.156179697	0.022280303	
657.52	0.17423	0.156166153	0.018063847	
657.56	0.17734	0.156152608	0.021187392	
657.6	0.18391	0.156139064	0.027770936	
657.64	0.18365	0.15612552	0.02752448	
657.68	0.18004	0.156111975	0.023928025	
657.72	0.17541	0.156098431	0.019311569	
657.76	0.17444	0.156084886	0.018355114	
657.8	0.17994	0.156071342	0.023868658	
657.84	0.18569	0.156057798	0.029632202	
657.88	0.1724	0.156044253	0.016355747	
657.92	0.18264	0.156030709	0.026609291	
657.96	0.18299	0.156017164	0.026972836	
658	0.17327	0.15600362	0.01726638	
658.04	0.1781	0.155990076	0.022109924	
658.08	0.17999	0.155976531	0.024013469	
658.12	0.17729	0.155962987	0.021327013	
658.16	0.17434	0.155949442	0.018390558	
658.2	0.17113	0.155935898	0.015194102	
658.24	0.17143	0.155922354	0.015507646	
658.28	0.17072	0.155908809	0.014811191	
658.32	0.1781	0.155895265	0.022204735	
658.36	0.17917	0.15588172	0.02328828	
658.4	0.17031	0.155868176	0.014441824	
658.44	0.17215	0.155854632	0.016295368	
658.48	0.17841	0.155841087	0.022568913	
658.52	0.17821	0.155827543	0.022382457	
658.56	0.17551	0.155813998	0.019696002	
658.6	0.17444	0.155800454	0.018639546	
658.64	0.18381	0.15578691	0.02802309	
658.68	0.18396	0.155773365	0.028186635	
658.72	0.17235	0.155759821	0.016590179	
658.76	0.18299	0.155746276	0.027243724	
658.8	0.17907	0.155732732	0.023337268	
658.84	0.17887	0.155719188	0.023150812	
658.88	0.18258	0.155705643	0.026874357	
658.92	0.1837	0.155692099	0.028007901	
658.96	0.18009	0.155678554	0.024411446	
659	0.17261	0.15566501	0.01694499	
659.04	0.17622	0.155651466	0.020568534	
659.08	0.17902	0.155637921	0.023382079	
659.12	0.17917	0.155624377	0.023545623	
659.16	0.17164	0.155610832	0.016029168	
659.2	0.17357	0.155597288	0.017972712	
659.24	0.18192	0.155583744	0.026336256	
659.28	0.1696	0.155570199	0.014029801	
659.32	0.17739	0.155556655	0.021833345	
659.36	0.16975	0.15554311	0.01420689	
659.4	0.17714	0.155529566	0.021610434	
659.44	0.17739	0.155516022	0.021873978	
659.48	0.1753	0.155502477	0.019797523	
659.52	0.17072	0.155488933	0.015231067	
659.56	0.17815	0.155475388	0.022674612	
659.6	0.18386	0.155461844	0.028398156	
659.64	0.17994	0.1554483	0.0244917	
659.68	0.17999	0.155434755	0.024555245	
659.72	0.17999	0.155421211	0.024568789	
659.76	0.16385	0.155407666	0.008442334	
659.8	0.18024	0.155394122	0.024845878	
659.84	0.18116	0.155380578	0.025779422	
659.88	0.17423	0.155367033	0.018862967	
659.92	0.17062	0.155353489	0.015266511	
659.96	0.17612	0.155339944	0.020780056	
660	0.17622	0.1553264	0.0208936	
660.04	0.17739	0.155312856	0.022077144	
660.08	0.17413	0.155299311	0.018830689	
660.12	0.17418	0.155285767	0.018894233	
660.16	0.17042	0.155272222	0.015147778	
660.2	0.17255	0.155258678	0.017291322	
660.24	0.17031	0.155245134	0.015064866	
660.28	0.17887	0.155231589	0.023638411	
660.32	0.17917	0.155218045	0.023951955	
660.36	0.17174	0.1552045	0.0165355	
660.4	0.17912	0.155190956	0.023929044	
660.44	0.17454	0.155177412	0.019362588	
660.48	0.17887	0.155163867	0.023706133	
660.52	0.17261	0.155150323	0.017459677	
660.56	0.18116	0.155136778	0.026023222	
660.6	0.18101	0.155123234	0.025886766	
660.64	0.18946	0.15510969	0.03435031	
660.68	0.17154	0.155096145	0.016443855	
660.72	0.17143	0.155082601	0.016347399	
660.76	0.17072	0.155069056	0.015650944	
660.8	0.16685	0.155055512	0.011794488	
660.84	0.16609	0.155041968	0.011048032	
660.88	0.17444	0.155028423	0.019411577	
660.92	0.17439	0.155014879	0.019375121	
660.96	0.17729	0.155001334	0.022288666	
661	0.17128	0.15498779	0.01629221	
661.04	0.1614	0.154974246	0.006425754	
661.08	0.17815	0.154960701	0.023189299	
661.12	0.17927	0.154947157	0.024322843	
661.16	0.16583	0.154933612	0.010896388	
661.2	0.16604	0.154920068	0.011119932	
661.24	0.17332	0.154906524	0.018413476	
661.28	0.17826	0.154892979	0.023367021	
661.32	0.17709	0.154879435	0.022210565	
661.36	0.16578	0.15486589	0.01091411	
661.4	0.17541	0.154852346	0.020557654	
661.44	0.17434	0.154838802	0.019501198	
661.48	0.17423	0.154825257	0.019404743	
661.52	0.17637	0.154811713	0.021558287	
661.56	0.17795	0.154798168	0.023151832	
661.6	0.17714	0.154784624	0.022355376	
661.64	0.17036	0.15477108	0.01558892	
661.68	0.16879	0.154757535	0.014032465	
661.72	0.17052	0.154743991	0.015776009	
661.76	0.16879	0.154730446	0.014059554	
661.8	0.16899	0.154716902	0.014273098	
661.84	0.17123	0.154703358	0.016526642	
661.88	0.17821	0.154689813	0.023520187	
661.92	0.17632	0.154676269	0.021643731	
661.96	0.1722	0.154662724	0.017537276	
662	0.1725	0.15464918	0.01785082	
662.04	0.18004	0.154635636	0.025404364	
662.08	0.18014	0.154622091	0.025517909	
662.12	0.17042	0.154608547	0.015811453	
662.16	0.16151	0.154595002	0.006914998	
662.2	0.17795	0.154581458	0.023368542	
662.24	0.17739	0.154567914	0.022822086	
662.28	0.17164	0.154554369	0.017085631	
662.32	0.17149	0.154540825	0.016949175	
662.36	0.17169	0.15452728	0.01716272	
662.4	0.17342	0.154513736	0.018906264	
662.44	0.16802	0.154500192	0.013519808	
662.48	0.17994	0.154486647	0.025453353	
662.52	0.17138	0.154473103	0.016906897	
662.56	0.17846	0.154459558	0.024000442	
662.6	0.17347	0.154446014	0.019023986	
662.64	0.16955	0.15443247	0.01511753	
662.68	0.16945	0.154418925	0.015031075	
662.72	0.17627	0.154405381	0.021864619	
662.76	0.17342	0.154391836	0.019028164	
662.8	0.17882	0.154378292	0.024441708	
662.84	0.1752	0.154364748	0.020835252	
662.88	0.17744	0.154351203	0.023088797	
662.92	0.17057	0.154337659	0.016232341	
662.96	0.17057	0.154324114	0.016245886	
663	0.17357	0.15431057	0.01925943	
663.04	0.17556	0.154297026	0.021262974	
663.08	0.17637	0.154283481	0.022086519	
663.12	0.16212	0.154269937	0.007850063	
663.16	0.17535	0.154256392	0.021093608	
663.2	0.16955	0.154242848	0.015307152	
663.24	0.17357	0.154229304	0.019340696	
663.28	0.17347	0.154215759	0.019254241	
663.32	0.17541	0.154202215	0.021207785	
663.36	0.17994	0.15418867	0.02575133	
663.4	0.18141	0.154175126	0.027234874	
663.44	0.17632	0.154161582	0.022158418	
663.48	0.18839	0.154148037	0.034241963	
663.52	0.17235	0.154134493	0.018215507	
663.56	0.17235	0.154120948	0.018229052	
663.6	0.18116	0.154107404	0.027052596	
663.64	0.17535	0.15409386	0.02125614	
663.68	0.18106	0.154080315	0.026979685	
663.72	0.18096	0.154066771	0.026893229	
663.76	0.17627	0.154053226	0.022216774	
663.8	0.17805	0.154039682	0.024010318	
663.84	0.17815	0.154026138	0.024123862	
663.88	0.17342	0.154012593	0.019407407	
663.92	0.18386	0.153999049	0.029860951	
663.96	0.17892	0.153985504	0.024934496	
664	0.186	0.15397196	0.03202804	
664.04	0.18589	0.153958416	0.031931584	
664.08	0.17927	0.153944871	0.025325129	
664.12	0.18503	0.153931327	0.031098673	
664.16	0.18467	0.153917782	0.030752218	
664.2	0.18778	0.153904238	0.033875762	
664.24	0.19699	0.153890694	0.043099306	
664.28	0.19043	0.153877149	0.036552851	
664.32	0.18752	0.153863605	0.033656395	
664.36	0.19801	0.15385006	0.04415994	
664.4	0.19888	0.153836516	0.045043484	
664.44	0.19893	0.153822972	0.045107028	
664.48	0.19053	0.153809427	0.036720573	
664.52	0.19012	0.153795883	0.036324117	
664.56	0.19796	0.153782338	0.044177662	
664.6	0.18869	0.153768794	0.034921206	
664.64	0.19333	0.15375525	0.03957475	
664.68	0.18936	0.153741705	0.035618295	
664.72	0.18645	0.153728161	0.032721839	
664.76	0.18681	0.153714616	0.033095384	
664.8	0.19511	0.153701072	0.041408928	
664.84	0.19348	0.153687528	0.039792472	
664.88	0.19597	0.153673983	0.042296017	
664.92	0.19246	0.153660439	0.038799561	
664.96	0.2055	0.153646894	0.051853106	
665	0.19908	0.15363335	0.04544665	
665.04	0.19913	0.153619806	0.045510194	
665.08	0.19633	0.153606261	0.042723739	
665.12	0.19883	0.153592717	0.045237283	
665.16	0.19699	0.153579172	0.043410828	
665.2	0.19485	0.153565628	0.041284372	
665.24	0.19312	0.153552084	0.039567916	
665.28	0.2056	0.153538539	0.052061461	
665.32	0.20529	0.153524995	0.051765005	
665.36	0.19124	0.15351145	0.03772855	
665.4	0.19903	0.153497906	0.045532094	
665.44	0.18498	0.153484362	0.031495638	
665.48	0.186	0.153470817	0.032529183	
665.52	0.19221	0.153457273	0.038752727	
665.56	0.18971	0.153443728	0.036266272	
665.6	0.19155	0.153430184	0.038119816	
665.64	0.19124	0.15341664	0.03782336	
665.68	0.18864	0.153403095	0.035236905	
665.72	0.19419	0.153389551	0.040800449	
665.76	0.18854	0.153376006	0.035163994	
665.8	0.19577	0.153362462	0.042407538	
665.84	0.20366	0.153348918	0.050311082	
665.88	0.18773	0.153335373	0.034394627	
665.92	0.18757	0.153321829	0.034248171	
665.96	0.19333	0.153308284	0.040021716	
666	0.18956	0.15329474	0.03626526	
666.04	0.19689	0.153281196	0.043608804	
666.08	0.19165	0.153267651	0.038382349	
666.12	0.18946	0.153254107	0.036205893	
666.16	0.19048	0.153240562	0.037239438	
666.2	0.19048	0.153227018	0.037252982	
666.24	0.18666	0.153213474	0.033446526	
666.28	0.18564	0.153199929	0.032440071	
666.32	0.19333	0.153186385	0.040143615	
666.36	0.18966	0.15317284	0.03648716	
666.4	0.18589	0.153159296	0.032730704	
666.44	0.19124	0.153145752	0.038094248	
666.48	0.19165	0.153132207	0.038517793	
666.52	0.19165	0.153118663	0.038531337	
666.56	0.19058	0.153105118	0.037474882	
666.6	0.17902	0.153091574	0.025928426	
666.64	0.18569	0.15307803	0.03261197	
666.68	0.19043	0.153064485	0.037365515	
666.72	0.17159	0.153050941	0.018539059	
666.76	0.18014	0.153037396	0.027102604	
666.8	0.18004	0.153023852	0.027016148	
666.84	0.1723	0.153010308	0.019289692	
666.88	0.17897	0.152996763	0.025973237	
666.92	0.17255	0.152983219	0.019566781	
666.96	0.16899	0.152969674	0.016020326	
667	0.17551	0.15295613	0.02255387	
667.04	0.17647	0.152942586	0.023527414	
667.08	0.17067	0.152929041	0.017740959	
667.12	0.17036	0.152915497	0.017444503	
667.16	0.17154	0.152901952	0.018638048	
667.2	0.16965	0.152888408	0.016761592	
667.24	0.17352	0.152874864	0.020645136	
667.28	0.1667	0.152861319	0.013838681	
667.32	0.17332	0.152847775	0.020472225	
667.36	0.16181	0.15283423	0.00897577	
667.4	0.16207	0.152820686	0.009249314	
667.44	0.16751	0.152807142	0.014702858	
667.48	0.1611	0.152793597	0.008306403	
667.52	0.16293	0.152780053	0.010149947	
667.56	0.17159	0.152766508	0.018823492	
667.6	0.17067	0.152752964	0.017917036	
667.64	0.164	0.15273942	0.01126058	
667.68	0.16405	0.152725875	0.011324125	
667.72	0.16588	0.152712331	0.013167669	
667.76	0.15825	0.152698786	0.005551214	
667.8	0.17266	0.152685242	0.019974758	
667.84	0.1612	0.152671698	0.008528302	
667.88	0.16023	0.152658153	0.007571847	
667.92	0.1613	0.152644609	0.008655391	
667.96	0.15835	0.152631064	0.005718936	
668	0.1586	0.15261752	0.00598248	
668.04	0.16599	0.152603976	0.013386024	
668.08	0.16191	0.152590431	0.009319569	
668.12	0.16125	0.152576887	0.008673113	
668.16	0.1642	0.152563342	0.011636658	
668.2	0.16706	0.152549798	0.014510202	
668.24	0.15845	0.152536254	0.005913746	
668.28	0.15809	0.152522709	0.005567291	
668.32	0.16023	0.152509165	0.007720835	
668.36	0.15647	0.15249562	0.00397438	
668.4	0.15728	0.152482076	0.004797924	
668.44	0.15071	0.152468532	-0.001758532	
668.48	0.16767	0.152454987	0.015215013	
668.52	0.1585	0.152441443	0.006058557	
668.56	0.15463	0.152427898	0.002202102	
668.6	0.15458	0.152414354	0.002165646	
668.64	0.1555	0.15240081	0.00309919	
668.68	0.16125	0.152387265	0.008862735	
668.72	0.17261	0.152373721	0.020236279	
668.76	0.15825	0.152360176	0.005889824	
668.8	0.16685	0.152346632	0.014503368	
668.84	0.15652	0.152333088	0.004186912	
668.88	0.15641	0.152319543	0.004090457	
668.92	0.15188	0.152305999	-0.000425999	
668.96	0.16507	0.152292454	0.012777546	
669	0.15815	0.15227891	0.00587109	
669.04	0.15458	0.152265366	0.002314634	
669.08	0.15947	0.152251821	0.007218179	
669.12	0.1586	0.152238277	0.006361723	
669.16	0.1584	0.152224732	0.006175268	
669.2	0.16033	0.152211188	0.008118812	
669.24	0.16329	0.152197644	0.011092356	
669.28	0.15438	0.152184099	0.002195901	
669.32	0.15825	0.152170555	0.006079445	
669.36	0.15916	0.15215701	0.00700299	
669.4	0.15636	0.152143466	0.004216534	
669.44	0.15443	0.152129922	0.002300078	
669.48	0.15463	0.152116377	0.002513623	
669.52	0.1501	0.152102833	-0.002002833	
669.56	0.15916	0.152089288	0.007070712	
669.6	0.14506	0.152075744	-0.007015744	
669.64	0.15285	0.1520622	0.0007878	
669.68	0.15682	0.152048655	0.004771345	
669.72	0.1613	0.152035111	0.009264889	
669.76	0.16105	0.152021566	0.009028434	
669.8	0.15932	0.152008022	0.007311978	
669.84	0.16298	0.151994478	0.010985522	
669.88	0.1639	0.151980933	0.011919067	
669.92	0.15652	0.151967389	0.004552611	
669.96	0.14613	0.151953844	-0.005823844	
670	0.15336	0.1519403	0.0014197	
670.04	0.15367	0.151926756	0.001743244	
670.08	0.15647	0.151913211	0.004556789	
670.12	0.15097	0.151899667	-0.000929667	
670.16	0.15733	0.151886122	0.005443878	
670.2	0.15265	0.151872578	0.000777422	
670.24	0.1529	0.151859034	0.001040966	
670.28	0.1555	0.151845489	0.003654511	
670.32	0.16023	0.151831945	0.008398055	
670.36	0.16033	0.1518184	0.0085116	
670.4	0.16023	0.151804856	0.008425144	
670.44	0.15076	0.151791312	-0.001031312	
670.48	0.16303	0.151777767	0.011252233	
670.52	0.15361	0.151764223	0.001845777	
670.56	0.1583	0.151750678	0.006549322	
670.6	0.1498	0.151737134	-0.001937134	
670.64	0.14974	0.15172359	-0.00198359	
670.68	0.15738	0.151710045	0.005669955	
670.72	0.15367	0.151696501	0.001973499	
670.76	0.15255	0.151682956	0.000867044	
670.8	0.14868	0.151669412	-0.002989412	
670.84	0.16298	0.151655868	0.011324132	
670.88	0.15097	0.151642323	-0.000672323	
670.92	0.15086	0.151628779	-0.000768779	
670.96	0.15071	0.151615234	-0.000905234	
671	0.1611	0.15160169	0.00949831	
671.04	0.15351	0.151588146	0.001921854	
671.08	0.15718	0.151574601	0.005605399	
671.12	0.16502	0.151561057	0.013458943	
671.16	0.15372	0.151547512	0.002172488	
671.2	0.14985	0.151533968	-0.001683968	
671.24	0.1499	0.151520424	-0.001620424	
671.28	0.16298	0.151506879	0.011473121	
671.32	0.15193	0.151493335	0.000436665	
671.36	0.15361	0.15147979	0.00213021	
671.4	0.15942	0.151466246	0.007953754	
671.44	0.1554	0.151452702	0.003947298	
671.48	0.16212	0.151439157	0.010680843	
671.52	0.16237	0.151425613	0.010944387	
671.56	0.15214	0.151412068	0.000727932	
671.6	0.15005	0.151398524	-0.001348524	
671.64	0.1554	0.15138498	0.00401502	
671.68	0.15626	0.151371435	0.004888565	
671.72	0.15356	0.151357891	0.002202109	
671.76	0.15372	0.151344346	0.002375654	
671.8	0.15947	0.151330802	0.008139198	
671.84	0.15937	0.151317258	0.008052742	
671.88	0.15652	0.151303713	0.005216287	
671.92	0.15443	0.151290169	0.003139831	
671.96	0.16191	0.151276624	0.010633376	
672	0.15097	0.15126308	-0.00029308	
672.04	0.15086	0.151249536	-0.000389536	
672.08	0.15102	0.151235991	-0.000215991	
672.12	0.15061	0.151222447	-0.000612447	
672.16	0.14445	0.151208902	-0.006758902	
672.2	0.1498	0.151195358	-0.001395358	
672.24	0.1557	0.151181814	0.004518186	
672.28	0.15285	0.151168269	0.001681731	
672.32	0.15718	0.151154725	0.006025275	
672.36	0.15275	0.15114118	0.00160882	
672.4	0.16023	0.151127636	0.009102364	
672.44	0.16023	0.151114092	0.009115908	
672.48	0.15346	0.151100547	0.002359453	
672.52	0.15825	0.151087003	0.007162997	
672.56	0.15504	0.151073458	0.003966542	
672.6	0.14929	0.151059914	-0.001769914	
672.64	0.14766	0.15104637	-0.00338637	
672.68	0.1586	0.151032825	0.007567175	
672.72	0.15845	0.151019281	0.007430719	
672.76	0.15443	0.151005736	0.003424264	
672.8	0.15199	0.150992192	0.000997808	
672.84	0.15346	0.150978648	0.002481352	
672.88	0.1498	0.150965103	-0.001165103	
672.92	0.15473	0.150951559	0.003778441	
672.96	0.1556	0.150938014	0.004661986	
673	0.1554	0.15092447	0.00447553	
673.04	0.14954	0.150910926	-0.001370926	
673.08	0.15346	0.150897381	0.002562619	
673.12	0.15295	0.150883837	0.002066163	
673.16	0.15453	0.150870292	0.003659708	
673.2	0.15733	0.150856748	0.006473252	
673.24	0.15927	0.150843204	0.008426796	
673.28	0.15086	0.150829659	3.03E-05	
673.32	0.15061	0.150816115	-0.000206115	
673.36	0.15733	0.15080257	0.00652743	
673.4	0.15377	0.150789026	0.002980974	
673.44	0.1498	0.150775482	-0.000975482	
673.48	0.15071	0.150761937	-5.19E-05	
673.52	0.1499	0.150748393	-0.000848393	
673.56	0.14216	0.150734848	-0.008574848	
673.6	0.14206	0.150721304	-0.008661304	
673.64	0.14995	0.15070776	-0.00075776	
673.68	0.15173	0.150694215	0.001035785	
673.72	0.15636	0.150680671	0.005679329	
673.76	0.1443	0.150667126	-0.006367126	
673.8	0.1499	0.150653582	-0.000753582	
673.84	0.15219	0.150640038	0.001549962	
673.88	0.15173	0.150626493	0.001103507	
673.92	0.14974	0.150612949	-0.000872949	
673.96	0.1529	0.150599404	0.002300596	
674	0.15448	0.15058586	0.00389414	
674.04	0.14593	0.150572316	-0.004642316	
674.08	0.15545	0.150558771	0.004891229	
674.12	0.14893	0.150545227	-0.001615227	
674.16	0.14791	0.150531682	-0.002621682	
674.2	0.14806	0.150518138	-0.002458138	
674.24	0.14705	0.150504594	-0.003454594	
674.28	0.15076	0.150491049	0.000268951	
674.32	0.1472	0.150477505	-0.003277505	
674.36	0.1584	0.15046396	0.00793604	
674.4	0.14898	0.150450416	-0.001470416	
674.44	0.15183	0.150436872	0.001393128	
674.48	0.15173	0.150423327	0.001306673	
674.52	0.14516	0.150409783	-0.005249783	
674.56	0.1528	0.150396238	0.002403762	
674.6	0.15346	0.150382694	0.003077306	
674.64	0.15657	0.15036915	0.00620085	
674.68	0.15183	0.150355605	0.001474395	
674.72	0.14435	0.150342061	-0.005992061	
674.76	0.1498	0.150328516	-0.000528516	
674.8	0.14964	0.150314972	-0.000674972	
674.84	0.15336	0.150301428	0.003058572	
674.88	0.14705	0.150287883	-0.003237883	
674.92	0.15071	0.150274339	0.000435661	
674.96	0.1443	0.150260794	-0.005960794	