	m	t	
f	-0.000405939	0.406321	
			
			
X in nm	Y Signal 	f	y-f
625.04	0.12439	0.152592887	-0.028202887
625.08	0.1304	0.15257665	-0.02217665
625.12	0.12912	0.152560412	-0.023440412
625.16	0.12836	0.152544175	-0.024184175
625.2	0.12826	0.152527937	-0.024267937
625.24	0.12831	0.1525117	-0.0242017
625.28	0.12383	0.152495462	-0.028665462
625.32	0.13228	0.152479225	-0.020199225
625.36	0.13564	0.152462987	-0.016822987
625.4	0.13854	0.152446749	-0.013906749
625.44	0.13121	0.152430512	-0.021220512
625.48	0.13101	0.152414274	-0.021404274
625.52	0.13366	0.152398037	-0.018738037
625.56	0.14506	0.152381799	-0.007321799
625.6	0.13956	0.152365562	-0.012805562
625.64	0.1501	0.152349324	-0.002249324
625.68	0.15529	0.152333086	0.002956914
625.72	0.16487	0.152316849	0.012553151
625.76	0.16802	0.152300611	0.015719389
625.8	0.16777	0.152284374	0.015485626
625.84	0.17632	0.152268136	0.024051864
625.88	0.18869	0.152251899	0.036438101
625.92	0.18834	0.152235661	0.036104339
625.96	0.2055	0.152219424	0.053280576
626	0.20544	0.152203186	0.053236814
626.04	0.22041	0.152186948	0.068223052
626.08	0.22062	0.152170711	0.068449289
626.12	0.23553	0.152154473	0.083375527
626.16	0.24241	0.152138236	0.090271764
626.2	0.2501	0.152121998	0.097978002
626.24	0.25269	0.152105761	0.100584239
626.28	0.26781	0.152089523	0.115720477
626.32	0.27433	0.152073286	0.122256714
626.36	0.27423	0.152057048	0.122172952
626.4	0.28166	0.15204081	0.12961919
626.44	0.27545	0.152024573	0.123425427
626.48	0.2836	0.152008335	0.131591665
626.52	0.2866	0.151992098	0.134607902
626.56	0.29796	0.15197586	0.14598414
626.6	0.28635	0.151959623	0.134390377
626.64	0.29042	0.151943385	0.138476615
626.68	0.29022	0.151927147	0.138292853
626.72	0.28563	0.15191091	0.13371909
626.76	0.29969	0.151894672	0.147795328
626.8	0.28095	0.151878435	0.129071565
626.84	0.2725	0.151862197	0.120637803
626.88	0.26955	0.15184596	0.11770404
626.92	0.26685	0.151829722	0.115020278
626.96	0.2669	0.151813485	0.115086515
627	0.24775	0.151797247	0.095952753
627.04	0.245	0.151781009	0.093218991
627.08	0.24119	0.151764772	0.089425228
627.12	0.22454	0.151748534	0.072791466
627.16	0.21303	0.151732297	0.061297703
627.2	0.19893	0.151716059	0.047213941
627.24	0.18869	0.151699822	0.036990178
627.28	0.18869	0.151683584	0.037006416
627.32	0.18864	0.151667347	0.036972653
627.36	0.16787	0.151651109	0.016218891
627.4	0.16212	0.151634871	0.010485129
627.44	0.1584	0.151618634	0.006781366
627.48	0.15275	0.151602396	0.001147604
627.52	0.15086	0.151586159	-0.000726159
627.56	0.15076	0.151569921	-0.000809921
627.6	0.14409	0.151553684	-0.007463684
627.64	0.14114	0.151537446	-0.010397446
627.68	0.13778	0.151521208	-0.013741208
627.72	0.13747	0.151504971	-0.014034971
627.76	0.13859	0.151488733	-0.012898733
627.8	0.13559	0.151472496	-0.015882496
627.84	0.1363	0.151456258	-0.015156258
627.88	0.13391	0.151440021	-0.017530021
627.92	0.13758	0.151423783	-0.013843783
627.96	0.13498	0.151407546	-0.016427546
628	0.13294	0.151391308	-0.018451308
628.04	0.13457	0.15137507	-0.01680507
628.08	0.14338	0.151358833	-0.007978833
628.12	0.13289	0.151342595	-0.018452595
628.16	0.13299	0.151326358	-0.018336358
628.2	0.13381	0.15131012	-0.01750012
628.24	0.13396	0.151293883	-0.017333883
628.28	0.13294	0.151277645	-0.018337645
628.32	0.12454	0.151261408	-0.026721408
628.36	0.13386	0.15124517	-0.01738517
628.4	0.12841	0.151228932	-0.022818932
628.44	0.12826	0.151212695	-0.022952695
628.48	0.13574	0.151196457	-0.015456457
628.52	0.12526	0.15118022	-0.02592022
628.56	0.13381	0.151163982	-0.017353982
628.6	0.12907	0.151147745	-0.022077745
628.64	0.12918	0.151131507	-0.021951507
628.68	0.13126	0.151115269	-0.019855269
628.72	0.13106	0.151099032	-0.020039032
628.76	0.12907	0.151082794	-0.022012794
628.8	0.12342	0.151066557	-0.027646557
628.84	0.12159	0.151050319	-0.029460319
628.88	0.12251	0.151034082	-0.028524082
628.92	0.12352	0.151017844	-0.027497844
628.96	0.12169	0.151001607	-0.029311607
629	0.11884	0.150985369	-0.032145369
629.04	0.11874	0.150969131	-0.032229131
629.08	0.12638	0.150952894	-0.024572894
629.12	0.11584	0.150936656	-0.035096656
629.16	0.11298	0.150920419	-0.037940419
629.2	0.11864	0.150904181	-0.032264181
629.24	0.12083	0.150887944	-0.030057944
629.28	0.11986	0.150871706	-0.031011706
629.32	0.11981	0.150855469	-0.031045469
629.36	0.11288	0.150839231	-0.037959231
629.4	0.1109	0.150822993	-0.039922993
629.44	0.11431	0.150806756	-0.036496756
629.48	0.11293	0.150790518	-0.037860518
629.52	0.10932	0.150774281	-0.041454281
629.56	0.10362	0.150758043	-0.047138043
629.6	0.10937	0.150741806	-0.041371806
629.64	0.10896	0.150725568	-0.041765568
629.68	0.10744	0.15070933	-0.04326933
629.72	0.10306	0.150693093	-0.047633093
629.76	0.11339	0.150676855	-0.037286855
629.8	0.11288	0.150660618	-0.037780618
629.84	0.11512	0.15064438	-0.03552438
629.88	0.10464	0.150628143	-0.045988143
629.92	0.10474	0.150611905	-0.045871905
629.96	0.1052	0.150595668	-0.045395668
630	0.10494	0.15057943	-0.04563943
630.04	0.1083	0.150563192	-0.042263192
630.08	0.10535	0.150546955	-0.045196955
630.12	0.11018	0.150530717	-0.040350717
630.16	0.11018	0.15051448	-0.04033448
630.2	0.11013	0.150498242	-0.040368242
630.24	0.11024	0.150482005	-0.040242005
630.28	0.10464	0.150465767	-0.045825767
630.32	0.10163	0.15044953	-0.04881953
630.36	0.1111	0.150433292	-0.039333292
630.4	0.10642	0.150417054	-0.043997054
630.44	0.10652	0.150400817	-0.043880817
630.48	0.0999	0.150384579	-0.050484579
630.52	0.09995	0.150368342	-0.050418342
630.56	0.11212	0.150352104	-0.038232104
630.6	0.1082	0.150335867	-0.042135867
630.64	0.10357	0.150319629	-0.046749629
630.68	0.10632	0.150303391	-0.043983391
630.72	0.10453	0.150287154	-0.045757154
630.76	0.1001	0.150270916	-0.050170916
630.8	0.10005	0.150254679	-0.050204679
630.84	0.09898	0.150238441	-0.051258441
630.88	0.10469	0.150222204	-0.045532204
630.92	0.1084	0.150205966	-0.041805966
630.96	0.10754	0.150189729	-0.042649729
631	0.1056	0.150173491	-0.044573491
631.04	0.10199	0.150157253	-0.048167253
631.08	0.10178	0.150141016	-0.048361016
631.12	0.10112	0.150124778	-0.049004778
631.16	0.10723	0.150108541	-0.042878541
631.2	0.10657	0.150092303	-0.043522303
631.24	0.10988	0.150076066	-0.040196066
631.28	0.10657	0.150059828	-0.043489828
631.32	0.11039	0.150043591	-0.039653591
631.36	0.10932	0.150027353	-0.040707353
631.4	0.10932	0.150011115	-0.040691115
631.44	0.10759	0.149994878	-0.042404878
631.48	0.11095	0.14997864	-0.03902864
631.52	0.11034	0.149962403	-0.039622403
631.56	0.11222	0.149946165	-0.037726165
631.6	0.12072	0.149929928	-0.029209928
631.64	0.10927	0.14991369	-0.04064369
631.68	0.10912	0.149897452	-0.040777452
631.72	0.11227	0.149881215	-0.037611215
631.76	0.10723	0.149864977	-0.042634977
631.8	0.12088	0.14984874	-0.02896874
631.84	0.11797	0.149832502	-0.031862502
631.88	0.11614	0.149816265	-0.033676265
631.92	0.12358	0.149800027	-0.026220027
631.96	0.11502	0.14978379	-0.03476379
632	0.11502	0.149767552	-0.034747552
632.04	0.1247	0.149751314	-0.025051314
632.08	0.11309	0.149735077	-0.036645077
632.12	0.12261	0.149718839	-0.027108839
632.16	0.12449	0.149702602	-0.025212602
632.2	0.12352	0.149686364	-0.026166364
632.24	0.12419	0.149670127	-0.025480127
632.28	0.12439	0.149653889	-0.025263889
632.32	0.12464	0.149637652	-0.024997652
632.36	0.13045	0.149621414	-0.019171414
632.4	0.12907	0.149605176	-0.020535176
632.44	0.12582	0.149588939	-0.023768939
632.48	0.12918	0.149572701	-0.020392701
632.52	0.12856	0.149556464	-0.020996464
632.56	0.12836	0.149540226	-0.021180226
632.6	0.12439	0.149523989	-0.025133989
632.64	0.13299	0.149507751	-0.016517751
632.68	0.12551	0.149491513	-0.023981513
632.72	0.12235	0.149475276	-0.027125276
632.76	0.12434	0.149459038	-0.025119038
632.8	0.12261	0.149442801	-0.026832801
632.84	0.12429	0.149426563	-0.025136563
632.88	0.1247	0.149410326	-0.024710326
632.92	0.12118	0.149394088	-0.028214088
632.96	0.11696	0.149377851	-0.032417851
633	0.11889	0.149361613	-0.030471613
633.04	0.12149	0.149345375	-0.027855375
633.08	0.11517	0.149329138	-0.034159138
633.12	0.12062	0.1493129	-0.0286929
633.16	0.12047	0.149296663	-0.028826663
633.2	0.11212	0.149280425	-0.037160425
633.24	0.11609	0.149264188	-0.033174188
633.28	0.11848	0.14924795	-0.03076795
633.32	0.1109	0.149231713	-0.038331713
633.36	0.11222	0.149215475	-0.036995475
633.4	0.11797	0.149199237	-0.031229237
633.44	0.11675	0.149183	-0.032433
633.48	0.11675	0.149166762	-0.032416762
633.52	0.1055	0.149150525	-0.043650525
633.56	0.1111	0.149134287	-0.038034287
633.6	0.1053	0.14911805	-0.04381805
633.64	0.10469	0.149101812	-0.044411812
633.68	0.10555	0.149085574	-0.043535574
633.72	0.10906	0.149069337	-0.040009337
633.76	0.10917	0.149053099	-0.039883099
633.8	0.10733	0.149036862	-0.041706862
633.84	0.0998	0.149020624	-0.049220624
633.88	0.10652	0.149004387	-0.042484387
633.92	0.10626	0.148988149	-0.042728149
633.96	0.10194	0.148971912	-0.047031912
634	0.10209	0.148955674	-0.046865674
634.04	0.10178	0.148939436	-0.047159436
634.08	0.10265	0.148923199	-0.046273199
634.12	0.10642	0.148906961	-0.042486961
634.16	0.10749	0.148890724	-0.041400724
634.2	0.10754	0.148874486	-0.041334486
634.24	0.10387	0.148858249	-0.044988249
634.28	0.10453	0.148842011	-0.044312011
634.32	0.09781	0.148825774	-0.051015774
634.36	0.09807	0.148809536	-0.050739536
634.4	0.10922	0.148793298	-0.039573298
634.44	0.10189	0.148777061	-0.046887061
634.48	0.10199	0.148760823	-0.046770823
634.52	0.10927	0.148744586	-0.039474586
634.56	0.10464	0.148728348	-0.044088348
634.6	0.10173	0.148712111	-0.046982111
634.64	0.10194	0.148695873	-0.046755873
634.68	0.11039	0.148679635	-0.038289635
634.72	0.10178	0.148663398	-0.046883398
634.76	0.11212	0.14864716	-0.03652716
634.8	0.10535	0.148630923	-0.043280923
634.84	0.10275	0.148614685	-0.045864685
634.88	0.10932	0.148598448	-0.039278448
634.92	0.10922	0.14858221	-0.03936221
634.96	0.10464	0.148565973	-0.043925973
635	0.10474	0.148549735	-0.043809735
635.04	0.10545	0.148533497	-0.043083497
635.08	0.10362	0.14851726	-0.04489726
635.12	0.10922	0.148501022	-0.039281022
635.16	0.10647	0.148484785	-0.042014785
635.2	0.11105	0.148468547	-0.037418547
635.24	0.11105	0.14845231	-0.03740231
635.28	0.1082	0.148436072	-0.040236072
635.32	0.09888	0.148419835	-0.049539835
635.36	0.10464	0.148403597	-0.043763597
635.4	0.10728	0.148387359	-0.041107359
635.44	0.11237	0.148371122	-0.036001122
635.48	0.10382	0.148354884	-0.044534884
635.52	0.10382	0.148338647	-0.044518647
635.56	0.10189	0.148322409	-0.046432409
635.6	0.1057	0.148306172	-0.042606172
635.64	0.10565	0.148289934	-0.042639934
635.68	0.10372	0.148273696	-0.044553696
635.72	0.1054	0.148257459	-0.042857459
635.76	0.10825	0.148241221	-0.039991221
635.8	0.10657	0.148224984	-0.041654984
635.84	0.10642	0.148208746	-0.041788746
635.88	0.1056	0.148192509	-0.042592509
635.92	0.09985	0.148176271	-0.048326271
635.96	0.10372	0.148160034	-0.044440034
636	0.09949	0.148143796	-0.048653796
636.04	0.10723	0.148127558	-0.040897558
636.08	0.10545	0.148111321	-0.042661321
636.12	0.10576	0.148095083	-0.042335083
636.16	0.10183	0.148078846	-0.046248846
636.2	0.10362	0.148062608	-0.044442608
636.24	0.10387	0.148046371	-0.044176371
636.28	0.10352	0.148030133	-0.044510133
636.32	0.10825	0.148013896	-0.039763896
636.36	0.10545	0.147997658	-0.042547658
636.4	0.10545	0.14798142	-0.04253142
636.44	0.10749	0.147965183	-0.040475183
636.48	0.10647	0.147948945	-0.041478945
636.52	0.10392	0.147932708	-0.044012708
636.56	0.10861	0.14791647	-0.03930647
636.6	0.10367	0.147900233	-0.044230233
636.64	0.10285	0.147883995	-0.045033995
636.68	0.10265	0.147867757	-0.045217757
636.72	0.1027	0.14785152	-0.04515152
636.76	0.09807	0.147835282	-0.049765282
636.8	0.10769	0.147819045	-0.040129045
636.84	0.10382	0.147802807	-0.043982807
636.88	0.1054	0.14778657	-0.04238657
636.92	0.11298	0.147770332	-0.034790332
636.96	0.10555	0.147754095	-0.042204095
637	0.10545	0.147737857	-0.042287857
637.04	0.10672	0.147721619	-0.041001619
637.08	0.10464	0.147705382	-0.043065382
637.12	0.10194	0.147689144	-0.045749144
637.16	0.10662	0.147672907	-0.041052907
637.2	0.10306	0.147656669	-0.044596669
637.24	0.10458	0.147640432	-0.043060432
637.28	0.10443	0.147624194	-0.043194194
637.32	0.10759	0.147607957	-0.040017957
637.36	0.10275	0.147591719	-0.044841719
637.4	0.10555	0.147575481	-0.042025481
637.44	0.10458	0.147559244	-0.042979244
637.48	0.10183	0.147543006	-0.045713006
637.52	0.10377	0.147526769	-0.043756769
637.56	0.10474	0.147510531	-0.042770531
637.6	0.10469	0.147494294	-0.042804294
637.64	0.11115	0.147478056	-0.036328056
637.68	0.10479	0.147461818	-0.042671818
637.72	0.10453	0.147445581	-0.042915581
637.76	0.1083	0.147429343	-0.039129343
637.8	0.11013	0.147413106	-0.037283106
637.84	0.10642	0.147396868	-0.040976868
637.88	0.10632	0.147380631	-0.041060631
637.92	0.11507	0.147364393	-0.032294393
637.96	0.1084	0.147348156	-0.038948156
638	0.11482	0.147331918	-0.032511918
638.04	0.1168	0.14731568	-0.03051568
638.08	0.11487	0.147299443	-0.032429443
638.12	0.11492	0.147283205	-0.032363205
638.16	0.12271	0.147266968	-0.024556968
638.2	0.12251	0.14725073	-0.02474073
638.24	0.12663	0.147234493	-0.020604493
638.28	0.13401	0.147218255	-0.013208255
638.32	0.13681	0.147202018	-0.010392018
638.36	0.14308	0.14718578	-0.00410578
638.4	0.14389	0.147169542	-0.003279542
638.44	0.14857	0.147153305	0.001416695
638.48	0.14903	0.147137067	0.001892933
638.52	0.15641	0.14712083	0.00928917
638.56	0.16339	0.147104592	0.016285408
638.6	0.1698	0.147088355	0.022711645
638.64	0.16772	0.147072117	0.020647883
638.68	0.167	0.147055879	0.019944121
638.72	0.18126	0.147039642	0.034220358
638.76	0.18116	0.147023404	0.034136596
638.8	0.18284	0.147007167	0.035832833
638.84	0.18004	0.146990929	0.033049071
638.88	0.18874	0.146974692	0.041765308
638.92	0.18839	0.146958454	0.041431546
638.96	0.19144	0.146942217	0.044497783
639	0.18284	0.146925979	0.035914021
639.04	0.18666	0.146909741	0.039750259
639.08	0.18661	0.146893504	0.039716496
639.12	0.18141	0.146877266	0.034532734
639.16	0.18854	0.146861029	0.041678971
639.2	0.18284	0.146844791	0.035995209
639.24	0.17805	0.146828554	0.031221446
639.28	0.17826	0.146812316	0.031447684
639.32	0.17989	0.146796079	0.033093921
639.36	0.18009	0.146779841	0.033310159
639.4	0.17352	0.146763603	0.026756397
639.44	0.16904	0.146747366	0.022292634
639.48	0.17591	0.146731128	0.029178872
639.52	0.1638	0.146714891	0.017085109
639.56	0.1639	0.146698653	0.017201347
639.6	0.16324	0.146682416	0.016557584
639.64	0.15657	0.146666178	0.009903822
639.68	0.15662	0.14664994	0.00997006
639.72	0.16196	0.146633703	0.015326297
639.76	0.15845	0.146617465	0.011832535
639.8	0.15193	0.146601228	0.005328772
639.84	0.15086	0.14658499	0.00427501
639.88	0.15173	0.146568753	0.005161247
639.92	0.14598	0.146552515	-0.000572515
639.96	0.14603	0.146536278	-0.000506278
640	0.1529	0.14652004	0.00637996
640.04	0.15092	0.146503802	0.004416198
640.08	0.14705	0.146487565	0.000562435
640.12	0.14521	0.146471327	-0.001261327
640.16	0.15173	0.14645509	0.00527491
640.2	0.14333	0.146438852	-0.003108852
640.24	0.14353	0.146422615	-0.002892615
640.28	0.15361	0.146406377	0.007203623
640.32	0.14822	0.14639014	0.00182986
640.36	0.14985	0.146373902	0.003476098
640.4	0.14801	0.146357664	0.001652336
640.44	0.15341	0.146341427	0.007068573
640.48	0.14618	0.146325189	-0.000145189
640.52	0.1528	0.146308952	0.006491048
640.56	0.1528	0.146292714	0.006507286
640.6	0.15178	0.146276477	0.005503523
640.64	0.15621	0.146260239	0.009949761
640.68	0.16125	0.146244001	0.015005999
640.72	0.15764	0.146227764	0.011412236
640.76	0.1582	0.146211526	0.011988474
640.8	0.17179	0.146195289	0.025594711
640.84	0.17138	0.146179051	0.025200949
640.88	0.1693	0.146162814	0.023137186
640.92	0.1725	0.146146576	0.026353424
640.96	0.17754	0.146130339	0.031409661
641	0.18197	0.146114101	0.035855899
641.04	0.19603	0.146097863	0.049932137
641.08	0.20173	0.146081626	0.055648374
641.12	0.20147	0.146065388	0.055404612
641.16	0.20753	0.146049151	0.061480849
641.2	0.21196	0.146032913	0.065927087
641.24	0.22606	0.146016676	0.080043324
641.28	0.22825	0.146000438	0.082249562
641.32	0.25264	0.145984201	0.106655799
641.36	0.24704	0.145967963	0.101072037
641.4	0.24791	0.145951725	0.101958275
641.44	0.24791	0.145935488	0.101974512
641.48	0.25733	0.14591925	0.11141075
641.52	0.25733	0.145903013	0.111426987
641.56	0.25076	0.145886775	0.104873225
641.6	0.26578	0.145870538	0.119909462
641.64	0.27067	0.1458543	0.1248157
641.68	0.26832	0.145838062	0.122481938
641.72	0.26863	0.145821825	0.122808175
641.76	0.26109	0.145805587	0.115284413
641.8	0.26588	0.14578935	0.12009065
641.84	0.26573	0.145773112	0.119956888
641.88	0.25819	0.145756875	0.112433125
641.92	0.25636	0.145740637	0.110619363
641.96	0.24704	0.1457244	0.1013156
642	0.24689	0.145708162	0.101181838
642.04	0.24694	0.145691924	0.101248076
642.08	0.24419	0.145675687	0.098514313
642.12	0.23757	0.145659449	0.091910551
642.16	0.23462	0.145643212	0.088976788
642.2	0.21395	0.145626974	0.068323026
642.24	0.21787	0.145610737	0.072259263
642.28	0.20361	0.145594499	0.058015501
642.32	0.20356	0.145578262	0.057981738
642.36	0.19328	0.145562024	0.047717976
642.4	0.1892	0.145545786	0.043654214
642.44	0.17897	0.145529549	0.033440451
642.48	0.17036	0.145513311	0.024846689
642.52	0.16965	0.145497074	0.024152926
642.56	0.16522	0.145480836	0.019739164
642.6	0.16497	0.145464599	0.019505401
642.64	0.16115	0.145448361	0.015701639
642.68	0.1554	0.145432123	0.009967877
642.72	0.15647	0.145415886	0.011054114
642.76	0.14521	0.145399648	-0.000189648
642.8	0.15372	0.145383411	0.008336589
642.84	0.15937	0.145367173	0.014002827
642.88	0.1529	0.145350936	0.007549064
642.92	0.15255	0.145334698	0.007215302
642.96	0.14048	0.145318461	-0.004838461
643	0.14435	0.145302223	-0.000952223
643.04	0.14491	0.145285985	-0.000375985
643.08	0.14226	0.145269748	-0.003009748
643.12	0.14425	0.14525351	-0.00100351
643.16	0.15377	0.145237273	0.008532727
643.2	0.15377	0.145221035	0.008548965
643.24	0.14878	0.145204798	0.003575202
643.28	0.14725	0.14518856	0.00206144
643.32	0.14817	0.145172323	0.002997677
643.36	0.14812	0.145156085	0.002963915
643.4	0.14139	0.145139847	-0.003749847
643.44	0.13921	0.14512361	-0.00591361
643.48	0.13936	0.145107372	-0.005747372
643.52	0.13681	0.145091135	-0.008281135
643.56	0.14425	0.145074897	-0.000824897
643.6	0.13284	0.14505866	-0.01221866
643.64	0.14588	0.145042422	0.000837578
643.68	0.14888	0.145026184	0.003853816
643.72	0.13875	0.145009947	-0.006259947
643.76	0.14511	0.144993709	0.000116291
643.8	0.14526	0.144977472	0.000282528
643.84	0.14353	0.144961234	-0.001431234
643.88	0.13406	0.144944997	-0.010884997
643.92	0.13966	0.144928759	-0.005268759
643.96	0.14501	0.144912522	9.74784E-05
644	0.14338	0.144896284	-0.001516284
644.04	0.1444	0.144880046	-0.000480046
644.08	0.14409	0.144863809	-0.000773809
644.12	0.14226	0.144847571	-0.002587571
644.16	0.14501	0.144831334	0.000178666
644.2	0.14145	0.144815096	-0.003365096
644.24	0.14638	0.144798859	0.001581141
644.28	0.13355	0.144782621	-0.011232621
644.32	0.13865	0.144766384	-0.006116384
644.36	0.13854	0.144750146	-0.006210146
644.4	0.13885	0.144733908	-0.005883908
644.44	0.1472	0.144717671	0.002482329
644.48	0.13411	0.144701433	-0.010591433
644.52	0.14338	0.144685196	-0.001305196
644.56	0.14715	0.144668958	0.002481042
644.6	0.14129	0.144652721	-0.003362721
644.64	0.13941	0.144636483	-0.005226483
644.68	0.13946	0.144620245	-0.005160245
644.72	0.13747	0.144604008	-0.007134008
644.76	0.13691	0.14458777	-0.00767777
644.8	0.14623	0.144571533	0.001658467
644.84	0.13595	0.144555295	-0.008605295
644.88	0.13401	0.144539058	-0.010529058
644.92	0.15102	0.14452282	0.00649718
644.96	0.15102	0.144506583	0.006513417
645	0.14633	0.144490345	0.001839655
645.04	0.14308	0.144474107	-0.001394107
645.08	0.14526	0.14445787	0.00080213
645.12	0.14684	0.144441632	0.002398368
645.16	0.14053	0.144425395	-0.003895395
645.2	0.14496	0.144409157	0.000550843
645.24	0.13763	0.14439292	-0.00676292
645.28	0.13747	0.144376682	-0.006906682
645.32	0.1471	0.144360445	0.002739555
645.36	0.13691	0.144344207	-0.007434207
645.4	0.14786	0.144327969	0.003532031
645.44	0.14618	0.144311732	0.001868268
645.48	0.14129	0.144295494	-0.003005494
645.52	0.1498	0.144279257	0.005520743
645.56	0.14995	0.144263019	0.005686981
645.6	0.13921	0.144246782	-0.005036782
645.64	0.13915	0.144230544	-0.005080544
645.68	0.14246	0.144214306	-0.001754306
645.72	0.1442	0.144198069	1.93108E-06
645.76	0.14323	0.144181831	-0.000951831
645.8	0.14623	0.144165594	0.002064406
645.84	0.13956	0.144149356	-0.004589356
645.88	0.13956	0.144133119	-0.004573119
645.92	0.14526	0.144116881	0.001143119
645.96	0.1471	0.144100644	0.002999356
646	0.14333	0.144084406	-0.000754406
646.04	0.1499	0.144068168	0.005831832
646.08	0.14608	0.144051931	0.002028069
646.12	0.13681	0.144035693	-0.007225693
646.16	0.13651	0.144019456	-0.007509456
646.2	0.14328	0.144003218	-0.000723218
646.24	0.14201	0.143986981	-0.001976981
646.28	0.14139	0.143970743	-0.002580743
646.32	0.14129	0.143954506	-0.002664506
646.36	0.13753	0.143938268	-0.006408268
646.4	0.14817	0.14392203	0.00424797
646.44	0.14817	0.143905793	0.004264207
646.48	0.14552	0.143889555	0.001630445
646.52	0.13758	0.143873318	-0.006293318
646.56	0.14435	0.14385708	0.00049292
646.6	0.14226	0.143840843	-0.001580843
646.64	0.14598	0.143824605	0.002155395
646.68	0.13844	0.143808367	-0.005368367
646.72	0.14109	0.14379213	-0.00270213
646.76	0.14114	0.143775892	-0.002635892
646.8	0.14236	0.143759655	-0.001399655
646.84	0.14684	0.143743417	0.003096583
646.88	0.14323	0.14372718	-0.00049718
646.92	0.14246	0.143710942	-0.001250942
646.96	0.14323	0.143694705	-0.000464705
647	0.14414	0.143678467	0.000461533
647.04	0.1443	0.143662229	0.000637771
647.08	0.14425	0.143645992	0.000604008
647.12	0.14435	0.143629754	0.000720246
647.16	0.147	0.143613517	0.003386483
647.2	0.14506	0.143597279	0.001462721
647.24	0.13681	0.143581042	-0.006771042
647.28	0.14033	0.143564804	-0.003234804
647.32	0.14048	0.143548567	-0.003068567
647.36	0.14043	0.143532329	-0.003102329
647.4	0.13844	0.143516091	-0.005076091
647.44	0.14521	0.143499854	0.001710146
647.48	0.14308	0.143483616	-0.000403616
647.52	0.14613	0.143467379	0.002662621
647.56	0.14526	0.143451141	0.001808859
647.6	0.14211	0.143434904	-0.001324904
647.64	0.14226	0.143418666	-0.001158666
647.68	0.1498	0.143402428	0.006397572
647.72	0.14165	0.143386191	-0.001736191
647.76	0.13941	0.143369953	-0.003959953
647.8	0.14145	0.143353716	-0.001903716
647.84	0.15	0.143337478	0.006662522
647.88	0.14425	0.143321241	0.000928759
647.92	0.14435	0.143305003	0.001044997
647.96	0.14445	0.143288766	0.001161234
648	0.14898	0.143272528	0.005707472
648.04	0.14425	0.14325629	0.00099371
648.08	0.15168	0.143240053	0.008439947
648.12	0.14496	0.143223815	0.001736185
648.16	0.13926	0.143207578	-0.003947578
648.2	0.15351	0.14319134	0.01031866
648.24	0.15351	0.143175103	0.010334897
648.28	0.147	0.143158865	0.003841135
648.32	0.13849	0.143142628	-0.004652628
648.36	0.14725	0.14312639	0.00412361
648.4	0.14241	0.143110152	-0.000700152
648.44	0.13763	0.143093915	-0.005463915
648.48	0.14781	0.143077677	0.004732323
648.52	0.14801	0.14306144	0.00494856
648.56	0.15097	0.143045202	0.007924798
648.6	0.14873	0.143028965	0.005701035
648.64	0.15092	0.143012727	0.007907273
648.68	0.1443	0.142996489	0.001303511
648.72	0.15112	0.142980252	0.008139748
648.76	0.14231	0.142964014	-0.000654014
648.8	0.14226	0.142947777	-0.000687777
648.84	0.13951	0.142931539	-0.003421539
648.88	0.13763	0.142915302	-0.005285302
648.92	0.14445	0.142899064	0.001550936
648.96	0.13951	0.142882827	-0.003372827
649	0.14893	0.142866589	0.006063411
649.04	0.14328	0.142850351	0.000429649
649.08	0.14801	0.142834114	0.005175886
649.12	0.14761	0.142817876	0.004792124
649.16	0.14618	0.142801639	0.003378361
649.2	0.14608	0.142785401	0.003294599
649.24	0.14898	0.142769164	0.006210836
649.28	0.14985	0.142752926	0.007097074
649.32	0.14817	0.142736689	0.005433311
649.36	0.15066	0.142720451	0.007939549
649.4	0.15081	0.142704213	0.008105787
649.44	0.14241	0.142687976	-0.000277976
649.48	0.13926	0.142671738	-0.003411738
649.52	0.14995	0.142655501	0.007294499
649.56	0.1387	0.142639263	-0.003939263
649.6	0.14501	0.142623026	0.002386974
649.64	0.14679	0.142606788	0.004183212
649.68	0.14694	0.14259055	0.00434945
649.72	0.14995	0.142574313	0.007375687
649.76	0.14119	0.142558075	-0.001368075
649.8	0.14343	0.142541838	0.000888162
649.84	0.147	0.1425256	0.0044744
649.88	0.14827	0.142509363	0.005760637
649.92	0.147	0.142493125	0.004506875
649.96	0.15076	0.142476888	0.008283112
650	0.15102	0.14246065	0.00855935
650.04	0.1471	0.142444412	0.004655588
650.08	0.14832	0.142428175	0.005891825
650.12	0.14145	0.142411937	-0.000961937
650.16	0.14124	0.1423957	-0.0011557
650.2	0.15453	0.142379462	0.012150538
650.24	0.14735	0.142363225	0.004986775
650.28	0.14694	0.142346987	0.004593013
650.32	0.14231	0.14233075	-2.07495E-05
650.36	0.14822	0.142314512	0.005905488
650.4	0.15	0.142298274	0.007701726
650.44	0.14735	0.142282037	0.005067963
650.48	0.15092	0.142265799	0.008654201
650.52	0.15183	0.142249562	0.009580438
650.56	0.147	0.142233324	0.004766676
650.6	0.14715	0.142217087	0.004932913
650.64	0.1472	0.142200849	0.004999151
650.68	0.15071	0.142184611	0.008525389
650.72	0.14501	0.142168374	0.002841626
650.76	0.14608	0.142152136	0.003927864
650.8	0.14313	0.142135899	0.000994101
650.84	0.14786	0.142119661	0.005740339
650.88	0.14786	0.142103424	0.005756576
650.92	0.14313	0.142087186	0.001042814
650.96	0.15458	0.142070949	0.012509051
651	0.14908	0.142054711	0.007025289
651.04	0.15372	0.142038473	0.011681527
651.08	0.14053	0.142022236	-0.001492236
651.12	0.1443	0.142005998	0.002294002
651.16	0.14409	0.141989761	0.002100239
651.2	0.14705	0.141973523	0.005076477
651.24	0.13834	0.141957286	-0.003617286
651.28	0.14822	0.141941048	0.006278952
651.32	0.14705	0.141924811	0.005125189
651.36	0.14211	0.141908573	0.000201427
651.4	0.14974	0.141892335	0.007847665
651.44	0.1471	0.141876098	0.005223902
651.48	0.1471	0.14185986	0.00524014
651.52	0.14613	0.141843623	0.004286377
651.56	0.13956	0.141827385	-0.002267385
651.6	0.14689	0.141811148	0.005078852
651.64	0.14898	0.14179491	0.00718509
651.68	0.14058	0.141778672	-0.001198672
651.72	0.14246	0.141762435	0.000697565
651.76	0.14236	0.141746197	0.000613803
651.8	0.14618	0.14172996	0.00445004
651.84	0.14104	0.141713722	-0.000673722
651.88	0.14333	0.141697485	0.001632515
651.92	0.1471	0.141681247	0.005418753
651.96	0.14343	0.14166501	0.00176499
652	0.14593	0.141648772	0.004281228
652.04	0.14262	0.141632534	0.000987466
652.08	0.14226	0.141616297	0.000643703
652.12	0.14603	0.141600059	0.004429941
652.16	0.14516	0.141583822	0.003576178
652.2	0.14913	0.141567584	0.007562416
652.24	0.14221	0.141551347	0.000658653
652.28	0.14506	0.141535109	0.003524891
652.32	0.13747	0.141518872	-0.004048872
652.36	0.13742	0.141502634	-0.004082634
652.4	0.14211	0.141486396	0.000623604
652.44	0.14435	0.141470159	0.002879841
652.48	0.14644	0.141453921	0.004986079
652.52	0.14043	0.141437684	-0.001007684
652.56	0.14608	0.141421446	0.004658554
652.6	0.13931	0.141405209	-0.002095209
652.64	0.13956	0.141388971	-0.001828971
652.68	0.14995	0.141372733	0.008577267
652.72	0.14898	0.141356496	0.007623504
652.76	0.14603	0.141340258	0.004689742
652.8	0.14119	0.141324021	-0.000134021
652.84	0.14883	0.141307783	0.007522217
652.88	0.14796	0.141291546	0.006668454
652.92	0.14613	0.141275308	0.004854692
652.96	0.14608	0.141259071	0.004820929
653	0.15265	0.141242833	0.011407167
653.04	0.14129	0.141226595	6.34046E-05
653.08	0.13513	0.141210358	-0.006080358
653.12	0.14124	0.14119412	4.58797E-05
653.16	0.1443	0.141177883	0.003122117
653.2	0.14231	0.141161645	0.001148355
653.24	0.14262	0.141145408	0.001474592
653.28	0.14694	0.14112917	0.00581083
653.32	0.14801	0.141112933	0.006897067
653.36	0.14715	0.141096695	0.006053305
653.4	0.15275	0.141080457	0.011669543
653.44	0.14705	0.14106422	0.00598578
653.48	0.1442	0.141047982	0.003152018
653.52	0.14435	0.141031745	0.003318255
653.56	0.14521	0.141015507	0.004194493
653.6	0.1443	0.14099927	0.00330073
653.64	0.14868	0.140983032	0.007696968
653.68	0.14236	0.140966794	0.001393206
653.72	0.14236	0.140950557	0.001409443
653.76	0.15662	0.140934319	0.015685681
653.8	0.14608	0.140918082	0.005161918
653.84	0.14608	0.140901844	0.005178156
653.88	0.15076	0.140885607	0.009874393
653.92	0.14588	0.140869369	0.005010631
653.96	0.15545	0.140853132	0.014596868
654	0.15158	0.140836894	0.010743106
654.04	0.14985	0.140820656	0.009029344
654.08	0.15367	0.140804419	0.012865581
654.12	0.15397	0.140788181	0.013181819
654.16	0.15473	0.140771944	0.013958056
654.2	0.15463	0.140755706	0.013874294
654.24	0.15255	0.140739469	0.011810531
654.28	0.15066	0.140723231	0.009936769
654.32	0.1612	0.140706994	0.020493006
654.36	0.15835	0.140690756	0.017659244
654.4	0.16497	0.140674518	0.024295482
654.44	0.16502	0.140658281	0.024361719
654.48	0.16018	0.140642043	0.019537957
654.52	0.16008	0.140625806	0.019454194
654.56	0.16303	0.140609568	0.022420432
654.6	0.17082	0.140593331	0.030226669
654.64	0.15759	0.140577093	0.017012907
654.68	0.17535	0.140560855	0.034789145
654.72	0.17525	0.140544618	0.034705382
654.76	0.17322	0.14052838	0.03269162
654.8	0.17413	0.140512143	0.033617857
654.84	0.17143	0.140495905	0.030934095
654.88	0.17999	0.140479668	0.039510332
654.92	0.17637	0.14046343	0.03590657
654.96	0.18202	0.140447193	0.041572807
655	0.18192	0.140430955	0.041489045
655.04	0.1809	0.140414717	0.040485283
655.08	0.18208	0.14039848	0.04168152
655.12	0.18126	0.140382242	0.040877758
655.16	0.18396	0.140366005	0.043593995
655.2	0.18202	0.140349767	0.041670233
655.24	0.18564	0.14033353	0.04530647
655.28	0.17332	0.140317292	0.033002708
655.32	0.17317	0.140301055	0.032868945
655.36	0.18574	0.140284817	0.045455183
655.4	0.18187	0.140268579	0.041601421
655.44	0.17846	0.140252342	0.038207658
655.48	0.17327	0.140236104	0.033033896
655.52	0.17994	0.140219867	0.039720133
655.56	0.16538	0.140203629	0.025176371
655.6	0.16507	0.140187392	0.024882608
655.64	0.17235	0.140171154	0.032178846
655.68	0.17164	0.140154916	0.031485084
655.72	0.16426	0.140138679	0.024121321
655.76	0.1642	0.140122441	0.024077559
655.8	0.1501	0.140106204	0.009993796
655.84	0.15275	0.140089966	0.012660034
655.88	0.15239	0.140073729	0.012316271
655.92	0.15173	0.140057491	0.011672509
655.96	0.15743	0.140041254	0.017388746
656	0.15265	0.140025016	0.012624984
656.04	0.14964	0.140008778	0.009631222
656.08	0.1502	0.139992541	0.010207459
656.12	0.14628	0.139976303	0.006303697
656.16	0.14903	0.139960066	0.009069934
656.2	0.14883	0.139943828	0.008886172
656.24	0.1362	0.139927591	-0.003727591
656.28	0.1443	0.139911353	0.004388647
656.32	0.1444	0.139895116	0.004504884
656.36	0.14058	0.139878878	0.000701122
656.4	0.1472	0.13986264	0.00733736
656.44	0.13946	0.139846403	-0.000386403
656.48	0.13936	0.139830165	-0.000470165
656.52	0.1444	0.139813928	0.004586072
656.56	0.14618	0.13979769	0.00638231
656.6	0.13865	0.139781453	-0.001131453
656.64	0.14516	0.139765215	0.005394785
656.68	0.15168	0.139748977	0.011931023
656.72	0.1499	0.13973274	0.01016726
656.76	0.14313	0.139716502	0.003413498
656.8	0.14318	0.139700265	0.003479735
656.84	0.14822	0.139684027	0.008535973
656.88	0.14806	0.13966779	0.00839221
656.92	0.14226	0.139651552	0.002608448
656.96	0.15382	0.139635315	0.014184685
657	0.14404	0.139619077	0.004420923
657.04	0.147	0.139602839	0.007397161
657.08	0.14694	0.139586602	0.007353398
657.12	0.14613	0.139570364	0.006559636
657.16	0.14801	0.139554127	0.008455873
657.2	0.13742	0.139537889	-0.002117889
657.24	0.14913	0.139521652	0.009608348
657.28	0.15295	0.139505414	0.013444586
657.32	0.13875	0.139489177	-0.000739177
657.36	0.13844	0.139472939	-0.001032939
657.4	0.14343	0.139456701	0.003973299
657.44	0.1498	0.139440464	0.010359536
657.48	0.14511	0.139424226	0.005685774
657.52	0.14806	0.139407989	0.008652011
657.56	0.14593	0.139391751	0.006538249
657.6	0.14806	0.139375514	0.008684486
657.64	0.14068	0.139359276	0.001320724
657.68	0.14063	0.139343038	0.001286962
657.72	0.14313	0.139326801	0.003803199
657.76	0.14801	0.139310563	0.008699437
657.8	0.14038	0.139294326	0.001085674
657.84	0.14048	0.139278088	0.001201912
657.88	0.1499	0.139261851	0.010638149
657.92	0.147	0.139245613	0.007754387
657.96	0.1473	0.139229376	0.008070624
658	0.14425	0.139213138	0.005036862
658.04	0.1471	0.1391969	0.0079031
658.08	0.15377	0.139180663	0.014589337
658.12	0.15285	0.139164425	0.013685575
658.16	0.14817	0.139148188	0.009021812
658.2	0.15372	0.13913195	0.01458805
658.24	0.14715	0.139115713	0.008034287
658.28	0.14715	0.139099475	0.008050525
658.32	0.15005	0.139083238	0.010966762
658.36	0.14623	0.139067	0.007163
658.4	0.1498	0.139050762	0.010749238
658.44	0.1472	0.139034525	0.008165475
658.48	0.14725	0.139018287	0.008231713
658.52	0.15183	0.13900205	0.01282795
658.56	0.15199	0.138985812	0.013004188
658.6	0.14588	0.138969575	0.006910425
658.64	0.15662	0.138953337	0.017666663
658.68	0.15463	0.138937099	0.015692901
658.72	0.15178	0.138920862	0.012859138
658.76	0.15932	0.138904624	0.020415376
658.8	0.15193	0.138888387	0.013041613
658.84	0.15173	0.138872149	0.012857851
658.88	0.16028	0.138855912	0.021424088
658.92	0.16033	0.138839674	0.021490326
658.96	0.15438	0.138823437	0.015556563
659	0.17138	0.138807199	0.032572801
659.04	0.16685	0.138790961	0.028059039
659.08	0.16604	0.138774724	0.027265276
659.12	0.17999	0.138758486	0.041231514
659.16	0.18029	0.138742249	0.041547751
659.2	0.17821	0.138726011	0.039483989
659.24	0.18309	0.138709774	0.044380226
659.28	0.18019	0.138693536	0.041496464
659.32	0.1865	0.138677299	0.047822701
659.36	0.19419	0.138661061	0.055528939
659.4	0.19898	0.138644823	0.060335177
659.44	0.19918	0.138628586	0.060551414
659.48	0.19343	0.138612348	0.054817652
659.52	0.19725	0.138596111	0.058653889
659.56	0.21018	0.138579873	0.071600127
659.6	0.20641	0.138563636	0.067846364
659.64	0.2084	0.138547398	0.069852602
659.68	0.20275	0.13853116	0.06421884
659.72	0.20254	0.138514923	0.064025077
659.76	0.21303	0.138498685	0.074531315
659.8	0.21858	0.138482448	0.080097552
659.84	0.22825	0.13846621	0.08978379
659.88	0.21588	0.138449973	0.077430027
659.92	0.22897	0.138433735	0.090536265
659.96	0.22245	0.138417498	0.084032502
660	0.22713	0.13840126	0.08872874
660.04	0.22718	0.138385022	0.088794978
660.08	0.22255	0.138368785	0.084181215
660.12	0.22245	0.138352547	0.084097453
660.16	0.21583	0.13833631	0.07749369
660.2	0.2197	0.138320072	0.081379928
660.24	0.22617	0.138303835	0.087866165
660.28	0.22046	0.138287597	0.082172403
660.32	0.22046	0.13827136	0.08218864
660.36	0.20193	0.138255122	0.063674878
660.4	0.21491	0.138238884	0.076671116
660.44	0.20911	0.138222647	0.070887353
660.48	0.20494	0.138206409	0.066733591
660.52	0.19725	0.138190172	0.059059828
660.56	0.20188	0.138173934	0.063706066
660.6	0.19623	0.138157697	0.058072303
660.64	0.19628	0.138141459	0.058138541
660.68	0.19547	0.138125221	0.057344779
660.72	0.19251	0.138108984	0.054401016
660.76	0.18656	0.138092746	0.048467254
660.8	0.18024	0.138076509	0.042163491
660.84	0.17917	0.138060271	0.041109729
660.88	0.1749	0.138044034	0.036855966
660.92	0.17525	0.138027796	0.037222204
660.96	0.1667	0.138011559	0.028688441
661	0.17714	0.137995321	0.039144679
661.04	0.17551	0.137979083	0.037530917
661.08	0.16568	0.137962846	0.027717154
661.12	0.15835	0.137946608	0.020403392
661.16	0.15932	0.137930371	0.021389629
661.2	0.15942	0.137914133	0.021505867
661.24	0.15086	0.137897896	0.012962104
661.28	0.15657	0.137881658	0.018688342
661.32	0.15285	0.137865421	0.014984579
661.36	0.14633	0.137849183	0.008480817
661.4	0.15372	0.137832945	0.015887055
661.44	0.14822	0.137816708	0.010403292
661.48	0.15372	0.13780047	0.01591953
661.52	0.15377	0.137784233	0.015985767
661.56	0.15937	0.137767995	0.021602005
661.6	0.13849	0.137751758	0.000738242
661.64	0.14694	0.13773552	0.00920448
661.68	0.14694	0.137719282	0.009220718
661.72	0.15178	0.137703045	0.014076955
661.76	0.14974	0.137686807	0.012053193
661.8	0.14959	0.13767057	0.01191943
661.84	0.14033	0.137654332	0.002675668
661.88	0.1473	0.137638095	0.009661905
661.92	0.14888	0.137621857	0.011258143
661.96	0.14593	0.13760562	0.00832438
662	0.14318	0.137589382	0.005590618
662.04	0.14129	0.137573144	0.003716856
662.08	0.14129	0.137556907	0.003733093
662.12	0.1499	0.137540669	0.012359331
662.16	0.14414	0.137524432	0.006615568
662.2	0.14791	0.137508194	0.010401806
662.24	0.13488	0.137491957	-0.002611957
662.28	0.13498	0.137475719	-0.002495719
662.32	0.13121	0.137459482	-0.006249482
662.36	0.14043	0.137443244	0.002986756
662.4	0.14048	0.137427006	0.003052994
662.44	0.14414	0.137410769	0.006729231
662.48	0.13299	0.137394531	-0.004404531
662.52	0.13763	0.137378294	0.000251706
662.56	0.14715	0.137362056	0.009787944
662.6	0.14318	0.137345819	0.005834181
662.64	0.13366	0.137329581	-0.003669581
662.68	0.13376	0.137313343	-0.003553343
662.72	0.14394	0.137297106	0.006642894
662.76	0.13941	0.137280868	0.002129132
662.8	0.13936	0.137264631	0.002095369
662.84	0.14338	0.137248393	0.006131607
662.88	0.1445	0.137232156	0.007267844
662.92	0.13483	0.137215918	-0.002385918
662.96	0.14328	0.137199681	0.006080319
663	0.14302	0.137183443	0.005836557
663.04	0.1331	0.137167205	-0.004067205
663.08	0.13666	0.137150968	-0.000490968
663.12	0.14027	0.13713473	0.00313527
663.16	0.13931	0.137118493	0.002191507
663.2	0.14119	0.137102255	0.004087745
663.24	0.13773	0.137086018	0.000643982
663.28	0.13742	0.13706978	0.00035022
663.32	0.13503	0.137053543	-0.002023543
663.36	0.14969	0.137037305	0.012652695
663.4	0.13681	0.137021067	-0.000211067
663.44	0.14134	0.13700483	0.00433517
663.48	0.13493	0.136988592	-0.002058592
663.52	0.13646	0.136972355	-0.000512355
663.56	0.13676	0.136956117	-0.000196117
663.6	0.1361	0.13693988	-0.00083988
663.64	0.13926	0.136923642	0.002336358
663.68	0.13661	0.136907404	-0.000297404
663.72	0.14119	0.136891167	0.004298833
663.76	0.13737	0.136874929	0.000495071
663.8	0.14038	0.136858692	0.003521308
663.84	0.13371	0.136842454	-0.003132454
663.88	0.13381	0.136826217	-0.003016217
663.92	0.14236	0.136809979	0.005550021
663.96	0.1304	0.136793742	-0.006393742
664	0.13478	0.136777504	-0.001997504
664.04	0.13758	0.136761266	0.000818734
664.08	0.13391	0.136745029	-0.002835029
664.12	0.13019	0.136728791	-0.006538791
664.16	0.13035	0.136712554	-0.006362554
664.2	0.13483	0.136696316	-0.001866316
664.24	0.12999	0.136680079	-0.006690079
664.28	0.1443	0.136663841	0.007636159
664.32	0.13427	0.136647604	-0.002377604
664.36	0.13019	0.136631366	-0.006441366
664.4	0.13305	0.136615128	-0.003565128
664.44	0.13915	0.136598891	0.002551109
664.48	0.13966	0.136582653	0.003077347
664.52	0.13676	0.136566416	0.000193584
664.56	0.13865	0.136550178	0.002099822
664.6	0.13732	0.136533941	0.000786059
664.64	0.13676	0.136517703	0.000242297
664.68	0.13585	0.136501465	-0.000651465
664.72	0.13401	0.136485228	-0.002475228
664.76	0.13396	0.13646899	-0.00250899
664.8	0.13773	0.136452753	0.001277247
664.84	0.13493	0.136436515	-0.001506515
664.88	0.13849	0.136420278	0.002069722
664.92	0.13758	0.13640404	0.00117596
664.96	0.13401	0.136387803	-0.002377803
665	0.13951	0.136371565	0.003138435
665.04	0.13941	0.136355327	0.003054673
665.08	0.13666	0.13633909	0.00032091
665.12	0.13656	0.136322852	0.000237148
665.16	0.13315	0.136306615	-0.003156615
665.2	0.12923	0.136290377	-0.007060377
665.24	0.13595	0.13627414	-0.00032414
665.28	0.14129	0.136257902	0.005032098
665.32	0.13951	0.136241665	0.003268335
665.36	0.13966	0.136225427	0.003434573
665.4	0.13325	0.136209189	-0.002959189
665.44	0.13569	0.136192952	-0.000502952
665.48	0.13503	0.136176714	-0.001146714
665.52	0.12989	0.136160477	-0.006270477
665.56	0.13941	0.136144239	0.003265761
665.6	0.13457	0.136128002	-0.001558002
665.64	0.13462	0.136111764	-0.001491764
665.68	0.13381	0.136095526	-0.002285526
665.72	0.13289	0.136079289	-0.003189289
665.76	0.14139	0.136063051	0.005326949
665.8	0.13844	0.136046814	0.002393186
665.84	0.13498	0.136030576	-0.001050576
665.88	0.1359	0.136014339	-0.000114339
665.92	0.13595	0.135998101	-4.81011E-05
665.96	0.13671	0.135981864	0.000728136
666	0.13198	0.135965626	-0.003985626
666.04	0.14145	0.135949388	0.005500612
666.08	0.13681	0.135933151	0.000876849
666.12	0.13101	0.135916913	-0.004906913
666.16	0.13742	0.135900676	0.001519324
666.2	0.13503	0.135884438	-0.000854438
666.24	0.13503	0.135868201	-0.000838201
666.28	0.13829	0.135851963	0.002438037
666.32	0.13289	0.135835726	-0.002945726
666.36	0.13849	0.135819488	0.002670512
666.4	0.13294	0.13580325	-0.00286325
666.44	0.13595	0.135787013	0.000162987
666.48	0.13946	0.135770775	0.003689225
666.52	0.13951	0.135754538	0.003755462
666.56	0.13676	0.1357383	0.0010217
666.6	0.13656	0.135722063	0.000837937
666.64	0.13661	0.135705825	0.000904175
666.68	0.13854	0.135689587	0.002850413
666.72	0.13452	0.13567335	-0.00115335
666.76	0.14262	0.135657112	0.006962888
666.8	0.13473	0.135640875	-0.000910875
666.84	0.13462	0.135624637	-0.001004637
666.88	0.13671	0.1356084	0.0011016
666.92	0.14129	0.135592162	0.005697838
666.96	0.1443	0.135575925	0.008724075
667	0.13411	0.135559687	-0.001449687
667.04	0.13671	0.135543449	0.001166551
667.08	0.13396	0.135527212	-0.001567212
667.12	0.13376	0.135510974	-0.001750974
667.16	0.13024	0.135494737	-0.005254737
667.2	0.14231	0.135478499	0.006831501
667.24	0.13376	0.135462262	-0.001702262
667.28	0.13676	0.135446024	0.001313976
667.32	0.13503	0.135429787	-0.000399787
667.36	0.13758	0.135413549	0.002166451
667.4	0.13758	0.135397311	0.002182689
667.44	0.13116	0.135381074	-0.004221074
667.48	0.14246	0.135364836	0.007095164
667.52	0.13366	0.135348599	-0.001688599
667.56	0.13961	0.135332361	0.004277639
667.6	0.14048	0.135316124	0.005163876
667.64	0.13371	0.135299886	-0.001589886
667.68	0.14048	0.135283648	0.005196352
667.72	0.14033	0.135267411	0.005062589
667.76	0.14043	0.135251173	0.005178827
667.8	0.1444	0.135234936	0.009165064
667.84	0.13865	0.135218698	0.003431302
667.88	0.13305	0.135202461	-0.002152461
667.92	0.13294	0.135186223	-0.002246223
667.96	0.13691	0.135169986	0.001740014
668	0.13702	0.135153748	0.001866252
668.04	0.14119	0.13513751	0.00605249
668.08	0.14058	0.135121273	0.005458727
668.12	0.13381	0.135105035	-0.001295035
668.16	0.14139	0.135088798	0.006301202
668.2	0.12928	0.13507256	-0.00579256
668.24	0.1387	0.135056323	0.003643677
668.28	0.13829	0.135040085	0.003249915
668.32	0.13844	0.135023848	0.003416152
668.36	0.13014	0.13500761	-0.00486761
668.4	0.13585	0.134991372	0.000858628
668.44	0.14053	0.134975135	0.005554865
668.48	0.13386	0.134958897	-0.001098897
668.52	0.14145	0.13494266	0.00650734
668.56	0.13498	0.134926422	5.35778E-05
668.6	0.13508	0.134910185	0.000169815
668.64	0.13101	0.134893947	-0.003883947
668.68	0.13676	0.134877709	0.001882291
668.72	0.14134	0.134861472	0.006478528
668.76	0.13585	0.134845234	0.001004766
668.8	0.13483	0.134828997	1.0032E-06
668.84	0.1387	0.134812759	0.003887241
668.88	0.13875	0.134796522	0.003953478
668.92	0.13279	0.134780284	-0.001990284
668.96	0.1359	0.134764047	0.001135953
669	0.13742	0.134747809	0.002672191
669.04	0.13865	0.134731571	0.003918429
669.08	0.13753	0.134715334	0.002814666
669.12	0.13106	0.134699096	-0.003639096
669.16	0.13773	0.134682859	0.003047141
669.2	0.13753	0.134666621	0.002863379
669.24	0.13732	0.134650384	0.002669616
669.28	0.13299	0.134634146	-0.001644146
669.32	0.13859	0.134617909	0.003972091
669.36	0.13182	0.134601671	-0.002781671
669.4	0.13666	0.134585433	0.002074567
669.44	0.15081	0.134569196	0.016240804
669.48	0.15086	0.134552958	0.016307042
669.52	0.13401	0.134536721	-0.000526721
669.56	0.13198	0.134520483	-0.002540483
669.6	0.13681	0.134504246	0.002305754
669.64	0.13681	0.134488008	0.002321992
669.68	0.13493	0.13447177	0.00045823
669.72	0.14053	0.134455533	0.006074467
669.76	0.14033	0.134439295	0.005890705
669.8	0.13763	0.134423058	0.003206942
669.84	0.14048	0.13440682	0.00607318
669.88	0.13198	0.134390583	-0.002410583
669.92	0.13595	0.134374345	0.001575655
669.96	0.13136	0.134358108	-0.002998108
670	0.13401	0.13434187	-0.00033187
670.04	0.12953	0.134325632	-0.004795632
670.08	0.12912	0.134309395	-0.005189395
670.12	0.14985	0.134293157	0.015556843
670.16	0.13961	0.13427692	0.00533308
670.2	0.13478	0.134260682	0.000519318
670.24	0.14333	0.134244445	0.009085555
670.28	0.13951	0.134228207	0.005281793
670.32	0.13569	0.13421197	0.00147803
670.36	0.13579	0.134195732	0.001594268
670.4	0.13208	0.134179494	-0.002099494
670.44	0.13386	0.134163257	-0.000303257
670.48	0.13111	0.134147019	-0.003037019
670.52	0.13361	0.134130782	-0.000520782
670.56	0.14114	0.134114544	0.007025456
670.6	0.13676	0.134098307	0.002661693
670.64	0.13131	0.134082069	-0.002772069
670.68	0.13106	0.134065831	-0.003005831
670.72	0.13289	0.134049594	-0.001159594
670.76	0.14165	0.134033356	0.007616644
670.8	0.12816	0.134017119	-0.005857119
670.84	0.13411	0.134000881	0.000109119
670.88	0.13203	0.133984644	-0.001954644
670.92	0.13747	0.133968406	0.003501594
670.96	0.13763	0.133952169	0.003677831
671	0.1387	0.133935931	0.004764069
671.04	0.13523	0.133919693	0.001310307
671.08	0.13854	0.133903456	0.004636544
671.12	0.13966	0.133887218	0.005772782
671.16	0.14134	0.133870981	0.007469019
671.2	0.13406	0.133854743	0.000205257
671.24	0.13386	0.133838506	2.14944E-05
671.28	0.14221	0.133822268	0.008387732
671.32	0.13371	0.133806031	-9.60305E-05
671.36	0.13401	0.133789793	0.000220207
671.4	0.13574	0.133773555	0.001966445
671.44	0.13376	0.133757318	2.68216E-06
671.48	0.13493	0.13374108	0.00118892
671.52	0.13208	0.133724843	-0.001644843
671.56	0.13218	0.133708605	-0.001528605
671.6	0.13585	0.133692368	0.002157632
671.64	0.13483	0.13367613	0.00115387
671.68	0.13406	0.133659892	0.000400108
671.72	0.13218	0.133643655	-0.001463655
671.76	0.1335	0.133627417	-0.000127417
671.8	0.12831	0.13361118	-0.00530118
671.84	0.128	0.133594942	-0.005594942
671.88	0.14094	0.133578705	0.007361295
671.92	0.13198	0.133562467	-0.001582467
671.96	0.13411	0.13354623	0.00056377
672	0.13498	0.133529992	0.001450008
672.04	0.13488	0.133513754	0.001366246
672.08	0.13086	0.133497517	-0.002637517
672.12	0.13101	0.133481279	-0.002471279
672.16	0.13299	0.133465042	-0.000475042
672.2	0.13218	0.133448804	-0.001268804
672.24	0.14043	0.133432567	0.006997433
672.28	0.13676	0.133416329	0.003343671
672.32	0.13294	0.133400092	-0.000460092
672.36	0.13646	0.133383854	0.003076146
672.4	0.13946	0.133367616	0.006092384
672.44	0.13926	0.133351379	0.005908621
672.48	0.13839	0.133335141	0.005054859
672.52	0.13564	0.133318904	0.002321096
672.56	0.12419	0.133302666	-0.009112666
672.6	0.13198	0.133286429	-0.001306429
672.64	0.14134	0.133270191	0.008069809
672.68	0.13498	0.133253953	0.001726047
672.72	0.13498	0.133237716	0.001742284
672.76	0.13488	0.133221478	0.001658522
672.8	0.14022	0.133205241	0.007014759
672.84	0.13666	0.133189003	0.003470997
672.88	0.13661	0.133172766	0.003437234
672.92	0.13279	0.133156528	-0.000366528
672.96	0.13656	0.133140291	0.003419709
673	0.13381	0.133124053	0.000685947
673.04	0.13396	0.133107815	0.000852185
673.08	0.13177	0.133091578	-0.001321578
673.12	0.13758	0.13307534	0.00450466
673.16	0.13753	0.133059103	0.004470897
673.2	0.13004	0.133042865	-0.003002865
673.24	0.13009	0.133026628	-0.002936628
673.28	0.13478	0.13301039	0.00176961
673.32	0.13478	0.132994153	0.001785847
673.36	0.13941	0.132977915	0.006432085
673.4	0.13931	0.132961677	0.006348323
673.44	0.13768	0.13294544	0.00473456
673.48	0.14063	0.132929202	0.007700798
673.52	0.13208	0.132912965	-0.000832965
673.56	0.14145	0.132896727	0.008553273
673.6	0.14139	0.13288049	0.00850951
673.64	0.13101	0.132864252	-0.001854252
673.68	0.13753	0.132848014	0.004681986
673.72	0.13299	0.132831777	0.000158223
673.76	0.1331	0.132815539	0.000284461
673.8	0.12912	0.132799302	-0.003679302
673.84	0.13554	0.132783064	0.002756936
673.88	0.14089	0.132766827	0.008123173
673.92	0.14104	0.132750589	0.008289411
673.96	0.13294	0.132734352	0.000205648
674	0.13656	0.132718114	0.003841886
674.04	0.13355	0.132701876	0.000848124
674.08	0.13391	0.132685639	0.001224361
674.12	0.12918	0.132669401	-0.003489401
674.16	0.12836	0.132653164	-0.004293164
674.2	0.128	0.132636926	-0.004636926
674.24	0.13865	0.132620689	0.006029311
674.28	0.12744	0.132604451	-0.005164451
674.32	0.13305	0.132588214	0.000461786
674.36	0.13101	0.132571976	-0.001561976
674.4	0.13305	0.132555738	0.000494262
674.44	0.12653	0.132539501	-0.006009501
674.48	0.13096	0.132523263	-0.001563263
674.52	0.13116	0.132507026	-0.001347026
674.56	0.13417	0.132490788	0.001679212
674.6	0.13691	0.132474551	0.004435449
674.64	0.13019	0.132458313	-0.002268313
674.68	0.13101	0.132442075	-0.001432075
674.72	0.13004	0.132425838	-0.002385838
674.76	0.13203	0.1324096	-0.0003796
674.8	0.13208	0.132393363	-0.000313363
674.84	0.13768	0.132377125	0.005302875
674.88	0.13854	0.132360888	0.006179112
674.92	0.12907	0.13234465	-0.00327465
674.96	0.12938	0.132328413	-0.002948413
675	0.13009	0.132312175	-0.002222175
675.04	0.12434	0.132295937	-0.007955937
675.08	0.12444	0.1322797	-0.0078397
675.12	0.13004	0.132263462	-0.002223462
675.16	0.12821	0.132247225	-0.004037225
675.2	0.12831	0.132230987	-0.003920987
675.24	0.13218	0.13221475	-3.47496E-05
675.28	0.13391	0.132198512	0.001711488
675.32	0.12526	0.132182275	-0.006922275
675.36	0.12739	0.132166037	-0.004776037
675.4	0.12724	0.132149799	-0.004909799
675.44	0.13371	0.132133562	0.001576438
675.48	0.12062	0.132117324	-0.011497324
675.52	0.13467	0.132101087	0.002568913
675.56	0.13075	0.132084849	-0.001334849
675.6	0.13982	0.132068612	0.007751388
675.64	0.13101	0.132052374	-0.001042374
675.68	0.13111	0.132036136	-0.000926136
675.72	0.12617	0.132019899	-0.005849899
675.76	0.13926	0.132003661	0.007256339
675.8	0.12831	0.131987424	-0.003677424
675.84	0.12933	0.131971186	-0.002641186
675.88	0.12999	0.131954949	-0.001964949
675.92	0.13473	0.131938711	0.002791289
675.96	0.13478	0.131922474	0.002857526
676	0.13279	0.131906236	0.000883764
676.04	0.13381	0.131889998	0.001920002
676.08	0.12831	0.131873761	-0.003563761
676.12	0.12923	0.131857523	-0.002627523
676.16	0.13009	0.131841286	-0.001751286
676.2	0.12622	0.131825048	-0.005605048
676.24	0.12963	0.131808811	-0.002178811
676.28	0.12907	0.131792573	-0.002722573
676.32	0.13579	0.131776336	0.004013664
676.36	0.13096	0.131760098	-0.000800098
676.4	0.1222	0.13174386	-0.00954386
676.44	0.13187	0.131727623	0.000142377
676.48	0.13564	0.131711385	0.003928615
676.52	0.12999	0.131695148	-0.001705148
676.56	0.13009	0.13167891	-0.00158891
676.6	0.12816	0.131662673	-0.003502673
676.64	0.13101	0.131646435	-0.000636435
676.68	0.13091	0.131630197	-0.000720197
676.72	0.13574	0.13161396	0.00412604
676.76	0.13086	0.131597722	-0.000737722
676.8	0.13208	0.131581485	0.000498515
676.84	0.13376	0.131565247	0.002194753
676.88	0.13417	0.13154901	0.00262099
676.92	0.12617	0.131532772	-0.005362772
676.96	0.12999	0.131516535	-0.001526535
677	0.13096	0.131500297	-0.000540297
677.04	0.12638	0.131484059	-0.005104059
677.08	0.13009	0.131467822	-0.001377822
677.12	0.12923	0.131451584	-0.002221584
677.16	0.12933	0.131435347	-0.002105347
677.2	0.12907	0.131419109	-0.002349109
677.24	0.12444	0.131402872	-0.006962872
677.28	0.13096	0.131386634	-0.000426634
677.32	0.13035	0.131370397	-0.001020397
677.36	0.13595	0.131354159	0.004595841
677.4	0.12907	0.131337921	-0.002267921
677.44	0.12918	0.131321684	-0.002141684
677.48	0.13366	0.131305446	0.002354554
677.52	0.13564	0.131289209	0.004350791
677.56	0.13834	0.131272971	0.007067029
677.6	0.13585	0.131256734	0.004593266
677.64	0.12632	0.131240496	-0.004920496
677.68	0.12994	0.131224258	-0.001284258
677.72	0.1359	0.131208021	0.004691979
677.76	0.136	0.131191783	0.004808217
677.8	0.12806	0.131175546	-0.003115546
677.84	0.12444	0.131159308	-0.006719308
677.88	0.13681	0.131143071	0.005666929
677.92	0.13676	0.131126833	0.005633167
677.96	0.13671	0.131110596	0.005599404
678	0.13742	0.131094358	0.006325642
678.04	0.13747	0.13107812	0.00639188
678.08	0.13411	0.131061883	0.003048117
678.12	0.13106	0.131045645	1.43547E-05
678.16	0.12632	0.131029408	-0.004709408
678.2	0.12836	0.13101317	-0.00265317
678.24	0.12454	0.130996933	-0.006456933
678.28	0.12541	0.130980695	-0.005570695
678.32	0.12531	0.130964458	-0.005654458
678.36	0.12459	0.13094822	-0.00635822
678.4	0.13121	0.130931982	0.000278018
678.44	0.13299	0.130915745	0.002074255
678.48	0.1331	0.130899507	0.002200493
678.52	0.13192	0.13088327	0.00103673
678.56	0.12912	0.130867032	-0.001747032
678.6	0.1359	0.130850795	0.005049205
678.64	0.1359	0.130834557	0.005065443
678.68	0.13483	0.130818319	0.004011681
678.72	0.13483	0.130802082	0.004027918
678.76	0.12831	0.130785844	-0.002475844
678.8	0.13187	0.130769607	0.001100393
678.84	0.12918	0.130753369	-0.001573369
678.88	0.12638	0.130737132	-0.004357132
678.92	0.12658	0.130720894	-0.004140894
678.96	0.13564	0.130704657	0.004935343
679	0.12892	0.130688419	-0.001768419
679.04	0.12245	0.130672181	-0.008222181
679.08	0.13386	0.130655944	0.003204056
679.12	0.128	0.130639706	-0.002639706
679.16	0.13554	0.130623469	0.004916531
679.2	0.12816	0.130607231	-0.002447231
679.24	0.12836	0.130590994	-0.002230994
679.28	0.13513	0.130574756	0.004555244
679.32	0.12632	0.130558519	-0.004238519
679.36	0.1252	0.130542281	-0.005342281
679.4	0.13294	0.130526043	0.002413957
679.44	0.12836	0.130509806	-0.002149806
679.48	0.12826	0.130493568	-0.002233568
679.52	0.12841	0.130477331	-0.002067331
679.56	0.13024	0.130461093	-0.000221093
679.6	0.12912	0.130444856	-0.001324856
679.64	0.12902	0.130428618	-0.001408618
679.68	0.12928	0.13041238	-0.00113238
679.72	0.12744	0.130396143	-0.002956143
679.76	0.11889	0.130379905	-0.011489905
679.8	0.11889	0.130363668	-0.011473668
679.84	0.12923	0.13034743	-0.00111743
679.88	0.13508	0.130331193	0.004748807
679.92	0.12933	0.130314955	-0.000984955
679.96	0.13865	0.130298718	0.008351282
680	0.13213	0.13028248	0.00184752
680.04	0.12495	0.130266242	-0.005316242
680.08	0.12638	0.130250005	-0.003870005
680.12	0.12607	0.130233767	-0.004163767
680.16	0.12907	0.13021753	-0.00114753
680.2	0.12994	0.130201292	-0.000261292
680.24	0.13386	0.130185055	0.003674945
680.28	0.12856	0.130168817	-0.001608817
680.32	0.12918	0.13015258	-0.00097258
680.36	0.12627	0.130136342	-0.003866342
680.4	0.12612	0.130120104	-0.004000104
680.44	0.13666	0.130103867	0.006556133
680.48	0.13473	0.130087629	0.004642371
680.52	0.12617	0.130071392	-0.003901392
680.56	0.12347	0.130055154	-0.006585154
680.6	0.13305	0.130038917	0.003011083
680.64	0.13086	0.130022679	0.000837321
680.68	0.13742	0.130006441	0.007413559
680.72	0.13737	0.129990204	0.007379796
680.76	0.14063	0.129973966	0.010656034
680.8	0.13004	0.129957729	8.22712E-05
680.84	0.13187	0.129941491	0.001928509
680.88	0.13299	0.129925254	0.003064746
680.92	0.13126	0.129909016	0.001350984
680.96	0.12989	0.129892779	-2.77856E-06
681	0.1303	0.129876541	0.000423459
681.04	0.1332	0.129860303	0.003339697
681.08	0.1275	0.129844066	-0.002344066
681.12	0.13457	0.129827828	0.004742172
681.16	0.13106	0.129811591	0.001248409
681.2	0.13493	0.129795353	0.005134647
681.24	0.13198	0.129779116	0.002200884
681.28	0.13228	0.129762878	0.002517122
681.32	0.13737	0.129746641	0.007623359
681.36	0.13483	0.129730403	0.005099597
681.4	0.13844	0.129714165	0.008725835
681.44	0.1331	0.129697928	0.003402072
681.48	0.13758	0.12968169	0.00789831
681.52	0.12999	0.129665453	0.000324547
681.56	0.13473	0.129649215	0.005080785
681.6	0.13483	0.129632978	0.005197022
681.64	0.12831	0.12961674	-0.00130674
681.68	0.13579	0.129600502	0.006189498
681.72	0.14425	0.129584265	0.014665735
681.76	0.13396	0.129568027	0.004391973
681.8	0.13111	0.12955179	0.00155821
681.84	0.13854	0.129535552	0.009004448
681.88	0.13839	0.129519315	0.008870685
681.92	0.14068	0.129503077	0.011176923
681.96	0.14119	0.12948684	0.01170316
682	0.13569	0.129470602	0.006219398
682.04	0.14038	0.129454364	0.010925636
682.08	0.13763	0.129438127	0.008191873
682.12	0.13951	0.129421889	0.010088111
682.16	0.13946	0.129405652	0.010054348
682.2	0.13182	0.129389414	0.002430586
682.24	0.14231	0.129373177	0.012936823
682.28	0.13666	0.129356939	0.007303061
682.32	0.13391	0.129340702	0.004569298
682.36	0.1359	0.129324464	0.006575536
682.4	0.13473	0.129308226	0.005421774
682.44	0.13294	0.129291989	0.003648011
682.48	0.13305	0.129275751	0.003774249
682.52	0.13763	0.129259514	0.008370486
682.56	0.13406	0.129243276	0.004816724
682.6	0.13101	0.129227039	0.001782961
682.64	0.13086	0.129210801	0.001649199
682.68	0.13753	0.129194563	0.008335437
682.72	0.12912	0.129178326	-5.83259E-05
682.76	0.12912	0.129162088	-4.20884E-05
682.8	0.13035	0.129145851	0.001204149
682.84	0.13208	0.129129613	0.002950387
682.88	0.12638	0.129113376	-0.002733376
682.92	0.13396	0.129097138	0.004862862
682.96	0.12918	0.129080901	9.90994E-05
683	0.13299	0.129064663	0.003925337
683.04	0.13305	0.129048425	0.004001575
683.08	0.13279	0.129032188	0.003757812
683.12	0.12811	0.12901595	-0.00090595
683.16	0.12699	0.128999713	-0.002009713
683.2	0.13024	0.128983475	0.001256525
683.24	0.12841	0.128967238	-0.000557238
683.28	0.1252	0.128951	-0.003751
683.32	0.12648	0.128934763	-0.002454763
683.36	0.12627	0.128918525	-0.002648525
683.4	0.12139	0.128902287	-0.007512287
683.44	0.12551	0.12888605	-0.00337605
683.48	0.13213	0.128869812	0.003260188
683.52	0.13299	0.128853575	0.004136425
683.56	0.12536	0.128837337	-0.003477337
683.6	0.12831	0.1288211	-0.0005111
683.64	0.12795	0.128804862	-0.000854862
683.68	0.12851	0.128788624	-0.000278624
683.72	0.12139	0.128772387	-0.007382387
683.76	0.12744	0.128756149	-0.001316149
683.8	0.12627	0.128739912	-0.002469912
683.84	0.12877	0.128723674	4.63258E-05
683.88	0.12729	0.128707437	-0.001417437
683.92	0.12312	0.128691199	-0.005571199
683.96	0.12363	0.128674962	-0.005044962
684	0.12999	0.128658724	0.001331276
684.04	0.12704	0.128642486	-0.001602486
684.08	0.12724	0.128626249	-0.001386249
684.12	0.1251	0.128610011	-0.003510011
684.16	0.12912	0.128593774	0.000526226
684.2	0.12536	0.128577536	-0.003217536
684.24	0.12531	0.128561299	-0.003251299
684.28	0.12643	0.128545061	-0.002115061
684.32	0.12541	0.128528824	-0.003118824
684.36	0.12643	0.128512586	-0.002082586
684.4	0.1224	0.128496348	-0.006096348
684.44	0.12327	0.128480111	-0.005210111
684.48	0.12444	0.128463873	-0.004023873
684.52	0.12434	0.128447636	-0.004107636
684.56	0.12001	0.128431398	-0.008421398
684.6	0.12047	0.128415161	-0.007945161
684.64	0.13198	0.128398923	0.003581077
684.68	0.12719	0.128382685	-0.001192685
684.72	0.12918	0.128366448	0.000813552
684.76	0.12271	0.12835021	-0.00564021
684.8	0.12831	0.128333973	-2.39728E-05
684.84	0.12811	0.128317735	-0.000207735
684.88	0.12546	0.128301498	-0.002841498
684.92	0.12622	0.12828526	-0.00206526
684.96	0.12912	0.128269023	0.000850977
685	0.13019	0.128252785	0.001937215
685.04	0.12439	0.128236547	-0.003846547
685.08	0.12546	0.12822031	-0.00276031
685.12	0.1252	0.128204072	-0.003004072
685.16	0.13024	0.128187835	0.002052165
685.2	0.13218	0.128171597	0.004008403
685.24	0.12347	0.12815536	-0.00468536
685.28	0.12378	0.128139122	-0.004359122
685.32	0.11991	0.128122885	-0.008212885
685.36	0.12358	0.128106647	-0.004526647
685.4	0.13035	0.128090409	0.002259591
685.44	0.12994	0.128074172	0.001865828
685.48	0.12388	0.128057934	-0.004177934
685.52	0.12149	0.128041697	-0.006551697
685.56	0.12622	0.128025459	-0.001805459
685.6	0.12184	0.128009222	-0.006169222
685.64	0.1303	0.127992984	0.002307016
685.68	0.12042	0.127976746	-0.007556746
685.72	0.12077	0.127960509	-0.007190509
685.76	0.13121	0.127944271	0.003265729
685.8	0.11981	0.127928034	-0.008118034
685.84	0.12169	0.127911796	-0.006221796
685.88	0.11869	0.127895559	-0.009205559
685.92	0.12872	0.127879321	0.000840679
685.96	0.11965	0.127863084	-0.008213084
686	0.12016	0.127846846	-0.007686846
686.04	0.12821	0.127830608	0.000379392
686.08	0.12536	0.127814371	-0.002454371
686.12	0.12347	0.127798133	-0.004328133
686.16	0.12826	0.127781896	0.000478104
686.2	0.12627	0.127765658	-0.001495658
686.24	0.11691	0.127749421	-0.010839421
686.28	0.11976	0.127733183	-0.007973183
686.32	0.11986	0.127716946	-0.007856946
686.36	0.12826	0.127700708	0.000559292
686.4	0.12072	0.12768447	-0.00696447
686.44	0.12444	0.127668233	-0.003228233
686.48	0.12744	0.127651995	-0.000211995
686.52	0.12653	0.127635758	-0.001105758
686.56	0.12342	0.12761952	-0.00419952
686.6	0.12373	0.127603283	-0.003873283
686.64	0.12245	0.127587045	-0.005137045
686.68	0.12057	0.127570807	-0.007000807
686.72	0.11853	0.12755457	-0.00902457
686.76	0.1252	0.127538332	-0.002338332
686.8	0.12251	0.127522095	-0.005012095
686.84	0.12154	0.127505857	-0.005965857
686.88	0.12999	0.12748962	0.00250038
686.92	0.13004	0.127473382	0.002566618
686.96	0.12434	0.127457145	-0.003117145
687	0.12363	0.127440907	-0.003810907
687.04	0.12077	0.127424669	-0.006654669
687.08	0.12526	0.127408432	-0.002148432
687.12	0.13131	0.127392194	0.003917806
687.16	0.11976	0.127375957	-0.007615957
687.2	0.11945	0.127359719	-0.007909719
687.24	0.12434	0.127343482	-0.003003482
687.28	0.12128	0.127327244	-0.006047244
687.32	0.12653	0.127311007	-0.000781007
687.36	0.12607	0.127294769	-0.001224769
687.4	0.12856	0.127278531	0.001281469
687.44	0.12561	0.127262294	-0.001652294
687.48	0.12546	0.127246056	-0.001786056
687.52	0.12083	0.127229819	-0.006399819
687.56	0.12062	0.127213581	-0.006593581
687.6	0.12261	0.127197344	-0.004587344
687.64	0.12933	0.127181106	0.002148894
687.68	0.12067	0.127164868	-0.006494868
687.72	0.12923	0.127148631	0.002081369
687.76	0.1251	0.127132393	-0.002032393
687.8	0.12531	0.127116156	-0.001806156
687.84	0.11859	0.127099918	-0.008509918
687.88	0.11787	0.127083681	-0.009213681
687.92	0.12821	0.127067443	0.001142557
687.96	0.12638	0.127051206	-0.000671206
688	0.12251	0.127034968	-0.004524968
688.04	0.11894	0.12701873	-0.00807873
688.08	0.11864	0.127002493	-0.008362493
688.12	0.1247	0.126986255	-0.002286255
688.16	0.11874	0.126970018	-0.008230018
688.2	0.12342	0.12695378	-0.00353378
688.24	0.12444	0.126937543	-0.002497543
688.28	0.11965	0.126921305	-0.007271305
688.32	0.13361	0.126905068	0.006704932
688.36	0.13361	0.12688883	0.00672117
688.4	0.12368	0.126872592	-0.003192592
688.44	0.12159	0.126856355	-0.005266355
688.48	0.12439	0.126840117	-0.002450117
688.52	0.12459	0.12682388	-0.00223388
688.56	0.12928	0.126807642	0.002472358
688.6	0.12449	0.126791405	-0.002301405
688.64	0.12383	0.126775167	-0.002945167
688.68	0.12337	0.126758929	-0.003388929
688.72	0.12184	0.126742692	-0.004902692
688.76	0.12531	0.126726454	-0.001416454
688.8	0.12164	0.126710217	-0.005070217
688.84	0.12042	0.126693979	-0.006273979
688.88	0.12424	0.126677742	-0.002437742
688.92	0.12444	0.126661504	-0.002221504
688.96	0.12408	0.126645267	-0.002565267
689	0.12831	0.126629029	0.001680971
689.04	0.12811	0.126612791	0.001497209
689.08	0.12826	0.126596554	0.001663446
689.12	0.12515	0.126580316	-0.001430316
689.16	0.12449	0.126564079	-0.002074079
689.2	0.1359	0.126547841	0.009352159
689.24	0.13111	0.126531604	0.004578396
689.28	0.13086	0.126515366	0.004344634
689.32	0.12251	0.126499129	-0.003989129
689.36	0.12434	0.126482891	-0.002142891
689.4	0.12907	0.126466653	0.002603347
689.44	0.11869	0.126450416	-0.007760416
689.48	0.12505	0.126434178	-0.001384178
689.52	0.11477	0.126417941	-0.011647941
689.56	0.11523	0.126401703	-0.011171703
689.6	0.12459	0.126385466	-0.001795466
689.64	0.12378	0.126369228	-0.002589228
689.68	0.12709	0.12635299	0.00073701
689.72	0.12454	0.126336753	-0.001796753
689.76	0.12841	0.126320515	0.002089485
689.8	0.12439	0.126304278	-0.001914278
689.84	0.12424	0.12628804	-0.00204804
689.88	0.12439	0.126271803	-0.001881803
689.92	0.12424	0.126255565	-0.002015565
689.96	0.12531	0.126239328	-0.000929328