	m	t	
f	-0.00011117	0.21645	
			
			
X in nm	Y Signal 	f	y-f
625.04	0.14603	0.146964303	-0.000934303
625.08	0.14908	0.146959856	0.002120144
625.12	0.14532	0.14695541	-0.00163541
625.16	0.14516	0.146950963	-0.001790963
625.2	0.14226	0.146946516	-0.004686516
625.24	0.14333	0.146942069	-0.003612069
625.28	0.1527	0.146937622	0.005762378
625.32	0.14221	0.146933176	-0.004723176
625.36	0.15076	0.146928729	0.003831271
625.4	0.14501	0.146924282	-0.001914282
625.44	0.15453	0.146919835	0.007610165
625.48	0.15468	0.146915388	0.007764612
625.52	0.15738	0.146910942	0.010469058
625.56	0.16212	0.146906495	0.015213505
625.6	0.16303	0.146902048	0.016127952
625.64	0.18101	0.146897601	0.034112399
625.68	0.17714	0.146893154	0.030246846
625.72	0.18488	0.146888708	0.037991292
625.76	0.18488	0.146884261	0.037995739
625.8	0.18121	0.146879814	0.034330186
625.84	0.19328	0.146875367	0.046404633
625.88	0.19429	0.14687092	0.04741908
625.92	0.2196	0.146866474	0.072733526
625.96	0.22164	0.146862027	0.074777973
626	0.24215	0.14685758	0.09529242
626.04	0.2422	0.146853133	0.095346867
626.08	0.25453	0.146848686	0.107681314
626.12	0.2865	0.14684424	0.13965576
626.16	0.27214	0.146839793	0.125300207
626.2	0.30824	0.146835346	0.161404654
626.24	0.30447	0.146830899	0.157639101
626.28	0.31863	0.146826452	0.171803548
626.32	0.31985	0.146822006	0.173027994
626.36	0.31964	0.146817559	0.172822441
626.4	0.32234	0.146813112	0.175526888
626.44	0.32621	0.146808665	0.179401335
626.48	0.34755	0.146804218	0.200745782
626.52	0.34688	0.146799772	0.200080228
626.56	0.33461	0.146795325	0.187814675
626.6	0.35712	0.146790878	0.210329122
626.64	0.35717	0.146786431	0.210383569
626.68	0.34317	0.146781984	0.196388016
626.72	0.35656	0.146777538	0.209782462
626.76	0.33772	0.146773091	0.190946909
626.8	0.33553	0.146768644	0.188761356
626.84	0.32448	0.146764197	0.177715803
626.88	0.31206	0.14675975	0.16530025
626.92	0.31196	0.146755304	0.165204696
626.96	0.30641	0.146750857	0.159659143
627	0.28843	0.14674641	0.14168359
627.04	0.29297	0.146741963	0.146228037
627.08	0.27235	0.146737516	0.125612484
627.12	0.26196	0.14673307	0.11522693
627.16	0.23635	0.146728623	0.089621377
627.2	0.22729	0.146724176	0.080565824
627.24	0.22724	0.146719729	0.080520271
627.28	0.21603	0.146715282	0.069314718
627.32	0.19704	0.146710836	0.050329164
627.36	0.1972	0.146706389	0.050493611
627.4	0.17719	0.146701942	0.030488058
627.44	0.18116	0.146697495	0.034462505
627.48	0.16874	0.146693048	0.022046952
627.52	0.16894	0.146688602	0.022251398
627.56	0.16568	0.146684155	0.018995845
627.6	0.15458	0.146679708	0.007900292
627.64	0.15265	0.146675261	0.005974739
627.68	0.15372	0.146670814	0.007049186
627.72	0.1528	0.146666368	0.006133632
627.76	0.15463	0.146661921	0.007968079
627.8	0.15255	0.146657474	0.005892526
627.84	0.1528	0.146653027	0.006146973
627.88	0.14333	0.14664858	-0.00331858
627.92	0.15555	0.146644134	0.008905866
627.96	0.15275	0.146639687	0.006110313
628	0.14588	0.14663524	-0.00075524
628.04	0.1443	0.146630793	-0.002330793
628.08	0.14618	0.146626346	-0.000446346
628.12	0.14628	0.1466219	-0.0003419
628.16	0.15102	0.146617453	0.004402547
628.2	0.14486	0.146613006	-0.001753006
628.24	0.14598	0.146608559	-0.000628559
628.28	0.15107	0.146604112	0.004465888
628.32	0.1446	0.146599666	-0.001999666
628.36	0.14506	0.146595219	-0.001535219
628.4	0.14491	0.146590772	-0.001680772
628.44	0.14333	0.146586325	-0.003256325
628.48	0.14506	0.146581878	-0.001521878
628.52	0.15178	0.146577432	0.005202568
628.56	0.14618	0.146572985	-0.000392985
628.6	0.14124	0.146568538	-0.005328538
628.64	0.13921	0.146564091	-0.007354091
628.68	0.14165	0.146559644	-0.004909644
628.72	0.14134	0.146555198	-0.005215198
628.76	0.13758	0.146550751	-0.008970751
628.8	0.13498	0.146546304	-0.011566304
628.84	0.13131	0.146541857	-0.015231857
628.88	0.13213	0.14653741	-0.01440741
628.92	0.13101	0.146532964	-0.015522964
628.96	0.13101	0.146528517	-0.015518517
629	0.13065	0.14652407	-0.01587407
629.04	0.13014	0.146519623	-0.016379623
629.08	0.12831	0.146515176	-0.018205176
629.12	0.12505	0.14651073	-0.02146073
629.16	0.13579	0.146506283	-0.010716283
629.2	0.1222	0.146501836	-0.024301836
629.24	0.12454	0.146497389	-0.021957389
629.28	0.12164	0.146492942	-0.024852942
629.32	0.12164	0.146488496	-0.024848496
629.36	0.12337	0.146484049	-0.023114049
629.4	0.12189	0.146479602	-0.024589602
629.44	0.11492	0.146475155	-0.031555155
629.48	0.12276	0.146470708	-0.023710708
629.52	0.11502	0.146466262	-0.031446262
629.56	0.11675	0.146461815	-0.029711815
629.6	0.11691	0.146457368	-0.029547368
629.64	0.11024	0.146452921	-0.036212921
629.68	0.11736	0.146448474	-0.029088474
629.72	0.11217	0.146444028	-0.034274028
629.76	0.11487	0.146439581	-0.031569581
629.8	0.11283	0.146435134	-0.033605134
629.84	0.11125	0.146430687	-0.035180687
629.88	0.11115	0.14642624	-0.03527624
629.92	0.11115	0.146421794	-0.035271794
629.96	0.11222	0.146417347	-0.034197347
630	0.10728	0.1464129	-0.0391329
630.04	0.10525	0.146408453	-0.041158453
630.08	0.11024	0.146404006	-0.036164006
630.12	0.1026	0.14639956	-0.04379956
630.16	0.10525	0.146395113	-0.041145113
630.2	0.1054	0.146390666	-0.040990666
630.24	0.10352	0.146386219	-0.042866219
630.28	0.10922	0.146381772	-0.037161772
630.32	0.11217	0.146377326	-0.034207326
630.36	0.11507	0.146372879	-0.031302879
630.4	0.1111	0.146368432	-0.035268432
630.44	0.09893	0.146363985	-0.047433985
630.48	0.09924	0.146359538	-0.047119538
630.52	0.10845	0.146355092	-0.037905092
630.56	0.11095	0.146350645	-0.035400645
630.6	0.10626	0.146346198	-0.040086198
630.64	0.10382	0.146341751	-0.042521751
630.68	0.10708	0.146337304	-0.039257304
630.72	0.11405	0.146332858	-0.032282858
630.76	0.114	0.146328411	-0.032328411
630.8	0.10922	0.146323964	-0.037103964
630.84	0.10906	0.146319517	-0.037259517
630.88	0.1052	0.14631507	-0.04111507
630.92	0.10214	0.146310624	-0.044170624
630.96	0.10377	0.146306177	-0.042536177
631	0.1057	0.14630173	-0.04060173
631.04	0.10453	0.146297283	-0.041767283
631.08	0.10464	0.146292836	-0.041652836
631.12	0.10275	0.14628839	-0.04353839
631.16	0.11283	0.146283943	-0.033453943
631.2	0.10922	0.146279496	-0.037059496
631.24	0.11207	0.146275049	-0.034205049
631.28	0.11971	0.146270602	-0.026560602
631.32	0.11976	0.146266156	-0.026506156
631.36	0.11996	0.146261709	-0.026301709
631.4	0.12643	0.146257262	-0.019827262
631.44	0.13758	0.146252815	-0.008672815
631.48	0.13493	0.146248368	-0.011318368
631.52	0.13941	0.146243922	-0.006833922
631.56	0.13574	0.146239475	-0.010499475
631.6	0.14694	0.146235028	0.000704972
631.64	0.15092	0.146230581	0.004689419
631.68	0.15081	0.146226134	0.004583866
631.72	0.1498	0.146221688	0.003578312
631.76	0.15932	0.146217241	0.013102759
631.8	0.15372	0.146212794	0.007507206
631.84	0.1638	0.146208347	0.017591653
631.88	0.16538	0.1462039	0.0191761
631.92	0.17515	0.146199454	0.028950546
631.96	0.1753	0.146195007	0.029104993
632	0.16777	0.14619056	0.02157944
632.04	0.16975	0.146186113	0.023563887
632.08	0.17418	0.146181666	0.027998334
632.12	0.16604	0.14617722	0.01986278
632.16	0.17902	0.146172773	0.032847227
632.2	0.17805	0.146168326	0.031881674
632.24	0.17826	0.146163879	0.032096121
632.28	0.18187	0.146159432	0.035710568
632.32	0.18014	0.146154986	0.033985014
632.36	0.17271	0.146150539	0.026559461
632.4	0.17714	0.146146092	0.030993908
632.44	0.17622	0.146141645	0.030078355
632.48	0.16792	0.146137198	0.021782802
632.52	0.16802	0.146132752	0.021887248
632.56	0.16777	0.146128305	0.021641695
632.6	0.16023	0.146123858	0.014106142
632.64	0.16105	0.146119411	0.014930589
632.68	0.1641	0.146114964	0.017985036
632.72	0.15728	0.146110518	0.011169482
632.76	0.14883	0.146106071	0.002723929
632.8	0.15647	0.146101624	0.010368376
632.84	0.15652	0.146097177	0.010422823
632.88	0.15387	0.14609273	0.00777727
632.92	0.15107	0.146088284	0.004981716
632.96	0.13885	0.146083837	-0.007233837
633	0.14134	0.14607939	-0.00473939
633.04	0.13305	0.146074943	-0.013024943
633.08	0.13498	0.146070496	-0.011090496
633.12	0.13488	0.14606605	-0.01118605
633.16	0.13666	0.146061603	-0.009401603
633.2	0.13172	0.146057156	-0.014337156
633.24	0.13478	0.146052709	-0.011272709
633.28	0.12536	0.146048262	-0.020688262
633.32	0.13004	0.146043816	-0.016003816
633.36	0.12154	0.146039369	-0.024499369
633.4	0.11787	0.146034922	-0.028164922
633.44	0.11777	0.146030475	-0.028260475
633.48	0.11782	0.146026028	-0.028206028
633.52	0.114	0.146021582	-0.032021582
633.56	0.11309	0.146017135	-0.032927135
633.6	0.11309	0.146012688	-0.032922688
633.64	0.10845	0.146008241	-0.037558241
633.68	0.10647	0.146003794	-0.039533794
633.72	0.10647	0.145999348	-0.039529348
633.76	0.11024	0.145994901	-0.035754901
633.8	0.10357	0.145990454	-0.042420454
633.84	0.10647	0.145986007	-0.039516007
633.88	0.10815	0.14598156	-0.03783156
633.92	0.10647	0.145977114	-0.039507114
633.96	0.10912	0.145972667	-0.036852667
634	0.10825	0.14596822	-0.03771822
634.04	0.10835	0.145963773	-0.037613773
634.08	0.10723	0.145959326	-0.038729326
634.12	0.10402	0.14595488	-0.04193488
634.16	0.11293	0.145950433	-0.033020433
634.2	0.10642	0.145945986	-0.039525986
634.24	0.10718	0.145941539	-0.038761539
634.28	0.11298	0.145937092	-0.032957092
634.32	0.11283	0.145932646	-0.033102646
634.36	0.11584	0.145928199	-0.030088199
634.4	0.10652	0.145923752	-0.039403752
634.44	0.10922	0.145919305	-0.036699305
634.48	0.10647	0.145914858	-0.039444858
634.52	0.1083	0.145910412	-0.037610412
634.56	0.10657	0.145905965	-0.039335965
634.6	0.10662	0.145901518	-0.039281518
634.64	0.10464	0.145897071	-0.041257071
634.68	0.10738	0.145892624	-0.038512624
634.72	0.09812	0.145888178	-0.047768178
634.76	0.1054	0.145883731	-0.040483731
634.8	0.11029	0.145879284	-0.035589284
634.84	0.10718	0.145874837	-0.038694837
634.88	0.10815	0.14587039	-0.03772039
634.92	0.1084	0.145865944	-0.037465944
634.96	0.10565	0.145861497	-0.040211497
635	0.1111	0.14585705	-0.03475705
635.04	0.10927	0.145852603	-0.036582603
635.08	0.1084	0.145848156	-0.037448156
635.12	0.10576	0.14584371	-0.04008371
635.16	0.11044	0.145839263	-0.035399263
635.2	0.11018	0.145834816	-0.035654816
635.24	0.10377	0.145830369	-0.042060369
635.28	0.10744	0.145825922	-0.038385922
635.32	0.10341	0.145821476	-0.042411476
635.36	0.10769	0.145817029	-0.038127029
635.4	0.11029	0.145812582	-0.035522582
635.44	0.10357	0.145808135	-0.042238135
635.48	0.10362	0.145803688	-0.042183688
635.52	0.10744	0.145799242	-0.038359242
635.56	0.10733	0.145794795	-0.038464795
635.6	0.10784	0.145790348	-0.037950348
635.64	0.10642	0.145785901	-0.039365901
635.68	0.10927	0.145781454	-0.036511454
635.72	0.11105	0.145777008	-0.034727008
635.76	0.10922	0.145772561	-0.036552561
635.8	0.10917	0.145768114	-0.036598114
635.84	0.10637	0.145763667	-0.039393667
635.88	0.10744	0.14575922	-0.03831922
635.92	0.10362	0.145754774	-0.042134774
635.96	0.11095	0.145750327	-0.034800327
636	0.10642	0.14574588	-0.03932588
636.04	0.10906	0.145741433	-0.036681433
636.08	0.10922	0.145736986	-0.036516986
636.12	0.10922	0.14573254	-0.03651254
636.16	0.10672	0.145728093	-0.039008093
636.2	0.10759	0.145723646	-0.038133646
636.24	0.10443	0.145719199	-0.041289199
636.28	0.10377	0.145714752	-0.041944752
636.32	0.1111	0.145710306	-0.034610306
636.36	0.10015	0.145705859	-0.045555859
636.4	0.0998	0.145701412	-0.045901412
636.44	0.11024	0.145696965	-0.035456965
636.48	0.10367	0.145692518	-0.042022518
636.52	0.1112	0.145688072	-0.034488072
636.56	0.10835	0.145683625	-0.037333625
636.6	0.10285	0.145679178	-0.042829178
636.64	0.11039	0.145674731	-0.035284731
636.68	0.11018	0.145670284	-0.035490284
636.72	0.11212	0.145665838	-0.033545838
636.76	0.10077	0.145661391	-0.044891391
636.8	0.10652	0.145656944	-0.039136944
636.84	0.11604	0.145652497	-0.029612497
636.88	0.10362	0.14564805	-0.04202805
636.92	0.11018	0.145643604	-0.035463604
636.96	0.11044	0.145639157	-0.035199157
637	0.11197	0.14563471	-0.03366471
637.04	0.10382	0.145630263	-0.041810263
637.08	0.10453	0.145625816	-0.041095816
637.12	0.10642	0.14562137	-0.03920137
637.16	0.10942	0.145616923	-0.036196923
637.2	0.1052	0.145612476	-0.040412476
637.24	0.1057	0.145608029	-0.039908029
637.28	0.10565	0.145603582	-0.039953582
637.32	0.1111	0.145599136	-0.034499136
637.36	0.10652	0.145594689	-0.039074689
637.4	0.11029	0.145590242	-0.035300242
637.44	0.1057	0.145585795	-0.039885795
637.48	0.11385	0.145581348	-0.031731348
637.52	0.10861	0.145576902	-0.036966902
637.56	0.10856	0.145572455	-0.037012455
637.6	0.10632	0.145568008	-0.039248008
637.64	0.10738	0.145563561	-0.038183561
637.68	0.10662	0.145559114	-0.038939114
637.72	0.11609	0.145554668	-0.029464668
637.76	0.10922	0.145550221	-0.036330221
637.8	0.11492	0.145545774	-0.030625774
637.84	0.1139	0.145541327	-0.031641327
637.88	0.11421	0.14553688	-0.03132688
637.92	0.11293	0.145532434	-0.032602434
637.96	0.11675	0.145527987	-0.028777987
638	0.11589	0.14552354	-0.02963354
638.04	0.12072	0.145519093	-0.024799093
638.08	0.13131	0.145514646	-0.014204646
638.12	0.12347	0.1455102	-0.0220402
638.16	0.12368	0.145505753	-0.021825753
638.2	0.13401	0.145501306	-0.011491306
638.24	0.13778	0.145496859	-0.007716859
638.28	0.14445	0.145492412	-0.001042412
638.32	0.14058	0.145487966	-0.004907966
638.36	0.14664	0.145483519	0.001156481
638.4	0.15555	0.145479072	0.010070928
638.44	0.15545	0.145474625	0.009975375
638.48	0.1584	0.145470178	0.012929822
638.52	0.18182	0.145465732	0.036354268
638.56	0.17546	0.145461285	0.029998715
638.6	0.18126	0.145456838	0.035803162
638.64	0.19531	0.145452391	0.049857609
638.68	0.19923	0.145447944	0.053782056
638.72	0.18676	0.145443498	0.041316502
638.76	0.18661	0.145439051	0.041170949
638.8	0.19536	0.145434604	0.049925396
638.84	0.20824	0.145430157	0.062809843
638.88	0.20738	0.14542571	0.06195429
638.92	0.21858	0.145421264	0.073158736
638.96	0.2194	0.145416817	0.073983183
639	0.2112	0.14541237	0.06578763
639.04	0.21089	0.145407923	0.065482077
639.08	0.22077	0.145403476	0.075366524
639.12	0.21135	0.14539903	0.06595097
639.16	0.21206	0.145394583	0.066665417
639.2	0.20936	0.145390136	0.063969864
639.24	0.20458	0.145385689	0.059194311
639.28	0.19903	0.145381242	0.053648758
639.32	0.19883	0.145376796	0.053453204
639.36	0.20183	0.145372349	0.056457651
639.4	0.20855	0.145367902	0.063182098
639.44	0.19241	0.145363455	0.047046545
639.48	0.18946	0.145359008	0.044100992
639.52	0.18213	0.145354562	0.036775438
639.56	0.17826	0.145350115	0.032909885
639.6	0.18477	0.145345668	0.039424332
639.64	0.18503	0.145341221	0.039688779
639.68	0.18594	0.145336774	0.040603226
639.72	0.17734	0.145332328	0.032007672
639.76	0.1641	0.145327881	0.018772119
639.8	0.17357	0.145323434	0.028246566
639.84	0.17143	0.145318987	0.026111013
639.88	0.15942	0.14531454	0.01410546
639.92	0.15916	0.145310094	0.013849906
639.96	0.16583	0.145305647	0.020524353
640	0.16675	0.1453012	0.0214488
640.04	0.15733	0.145296753	0.012033247
640.08	0.16583	0.145292306	0.020537694
640.12	0.16222	0.14528786	0.01693214
640.16	0.16609	0.145283413	0.020806587
640.2	0.15932	0.145278966	0.014041034
640.24	0.15911	0.145274519	0.013835481
640.28	0.16522	0.145270072	0.019949928
640.32	0.16395	0.145265626	0.018684374
640.36	0.16894	0.145261179	0.023678821
640.4	0.17352	0.145256732	0.028263268
640.44	0.18141	0.145252285	0.036157715
640.48	0.19358	0.145247838	0.048332162
640.52	0.19333	0.145243392	0.048086608
640.56	0.2	0.145238945	0.054761055
640.6	0.20091	0.145234498	0.055675502
640.64	0.22922	0.145230051	0.083989949
640.68	0.24898	0.145225604	0.103754396
640.72	0.25463	0.145221158	0.109408842
640.76	0.26537	0.145216711	0.120153289
640.8	0.26496	0.145212264	0.119747736
640.84	0.29515	0.145207817	0.149942183
640.88	0.32234	0.14520337	0.17713663
640.92	0.32728	0.145198924	0.182081076
640.96	0.36399	0.145194477	0.218795523
641	0.40437	0.14519003	0.25917997
641.04	0.43369	0.145185583	0.288504417
641.08	0.48644	0.145181136	0.341258864
641.12	0.48629	0.14517669	0.34111331
641.16	0.51744	0.145172243	0.372267757
641.2	0.5844	0.145167796	0.439232204
641.24	0.63317	0.145163349	0.488006651
641.28	0.68602	0.145158902	0.540861098
641.32	0.72477	0.145154456	0.579615544
641.36	0.75511	0.145150009	0.609959991
641.4	0.75465	0.145145562	0.609504438
641.44	0.8019	0.145141115	0.656758885
641.48	0.83459	0.145136668	0.689453332
641.52	0.85271	0.145132222	0.707577778
641.56	0.8659	0.145127775	0.720772225
641.6	0.86498	0.145123328	0.719856672
641.64	0.87237	0.145118881	0.727251119
641.68	0.87226	0.145114434	0.727145566
641.72	0.88026	0.145109988	0.735150012
641.76	0.86035	0.145105541	0.715244459
641.8	0.84996	0.145101094	0.704858906
641.84	0.83851	0.145096647	0.693413353
641.88	0.84243	0.1450922	0.6973378
641.92	0.82171	0.145087754	0.676622246
641.96	0.76682	0.145083307	0.621736693
642	0.76682	0.14507886	0.62174114
642.04	0.77451	0.145074413	0.629435587
642.08	0.71036	0.145069966	0.565290034
642.12	0.68149	0.14506552	0.53642448
642.16	0.64437	0.145061073	0.499308927
642.2	0.59952	0.145056626	0.454463374
642.24	0.526	0.145052179	0.380947821
642.28	0.52585	0.145047732	0.380802268
642.32	0.47519	0.145043286	0.330146714
642.36	0.4205	0.145038839	0.275461161
642.4	0.37361	0.145034392	0.228575608
642.44	0.3366	0.145029945	0.191570055
642.48	0.30432	0.145025498	0.159294502
642.52	0.267	0.145021052	0.121978948
642.56	0.2393	0.145016605	0.094283395
642.6	0.2391	0.145012158	0.094087842
642.64	0.22057	0.145007711	0.075562289
642.68	0.2085	0.145003264	0.063496736
642.72	0.19908	0.144998818	0.054081182
642.76	0.18498	0.144994371	0.039985629
642.8	0.16207	0.144989924	0.017080076
642.84	0.16222	0.144985477	0.017234523
642.88	0.16232	0.14498103	0.01733897
642.92	0.16222	0.144976584	0.017243416
642.96	0.15275	0.144972137	0.007777863
643	0.15743	0.14496769	0.01246231
643.04	0.15855	0.144963243	0.013586757
643.08	0.14511	0.144958796	0.000151204
643.12	0.15367	0.14495435	0.00871565
643.16	0.15356	0.144949903	0.008610097
643.2	0.15285	0.144945456	0.007904544
643.24	0.15081	0.144941009	0.005868991
643.28	0.14542	0.144936562	0.000483438
643.32	0.14898	0.144932116	0.004047884
643.36	0.1527	0.144927669	0.007772331
643.4	0.14262	0.144923222	-0.002303222
643.44	0.15662	0.144918775	0.011701225
643.48	0.15657	0.144914328	0.011655672
643.52	0.15173	0.144909882	0.006820118
643.56	0.14791	0.144905435	0.003004565
643.6	0.14913	0.144900988	0.004229012
643.64	0.147	0.144896541	0.002103459
643.68	0.14903	0.144892094	0.004137906
643.72	0.15285	0.144887648	0.007962352
643.76	0.15285	0.144883201	0.007966799
643.8	0.14822	0.144878754	0.003341246
643.84	0.14425	0.144874307	-0.000624307
643.88	0.14598	0.14486986	0.00111014
643.92	0.1471	0.144865414	0.002234586
643.96	0.15224	0.144860967	0.007379033
644	0.15356	0.14485652	0.00870348
644.04	0.15356	0.144852073	0.008707927
644.08	0.14603	0.144847626	0.001182374
644.12	0.14496	0.14484318	0.00011682
644.16	0.13844	0.144838733	-0.006398733
644.2	0.1499	0.144834286	0.005065714
644.24	0.15076	0.144829839	0.005930161
644.28	0.14974	0.144825392	0.004914608
644.32	0.14812	0.144820946	0.003299054
644.36	0.14827	0.144816499	0.003453501
644.4	0.14918	0.144812052	0.004367948
644.44	0.14043	0.144807605	-0.004377605
644.48	0.14796	0.144803158	0.003156842
644.52	0.13931	0.144798712	-0.005488712
644.56	0.14124	0.144794265	-0.003554265
644.6	0.14501	0.144789818	0.000220182
644.64	0.14526	0.144785371	0.000474629
644.68	0.13681	0.144780924	-0.007970924
644.72	0.13926	0.144776478	-0.005516478
644.76	0.14333	0.144772031	-0.001442031
644.8	0.14078	0.144767584	-0.003987584
644.84	0.13747	0.144763137	-0.007293137
644.88	0.1416	0.14475869	-0.00315869
644.92	0.14506	0.144754244	0.000305756
644.96	0.14521	0.144749797	0.000460203
645	0.14628	0.14474535	0.00153465
645.04	0.14134	0.144740903	-0.003400903
645.08	0.1471	0.144736456	0.002363544
645.12	0.13753	0.14473201	-0.00720201
645.16	0.1498	0.144727563	0.005072437
645.2	0.13498	0.144723116	-0.009743116
645.24	0.13483	0.144718669	-0.009888669
645.28	0.13849	0.144714222	-0.006224222
645.32	0.13294	0.144709776	-0.011769776
645.36	0.13753	0.144705329	-0.007175329
645.4	0.14114	0.144700882	-0.003560882
645.44	0.13865	0.144696435	-0.006046435
645.48	0.14705	0.144691988	0.002358012
645.52	0.14725	0.144687542	0.002562458
645.56	0.13844	0.144683095	-0.006243095
645.6	0.13829	0.144678648	-0.006388648
645.64	0.13656	0.144674201	-0.008114201
645.68	0.14796	0.144669754	0.003290246
645.72	0.14338	0.144665308	-0.001285308
645.76	0.13926	0.144660861	-0.005400861
645.8	0.14603	0.144656414	0.001373586
645.84	0.14623	0.144651967	0.001578033
645.88	0.14221	0.14464752	-0.00243752
645.92	0.13951	0.144643074	-0.005133074
645.96	0.14129	0.144638627	-0.003348627
646	0.14435	0.14463418	-0.00028418
646.04	0.136	0.144629733	-0.008629733
646.08	0.14425	0.144625286	-0.000375286
646.12	0.14425	0.14462084	-0.00037084
646.16	0.13849	0.144616393	-0.006126393
646.2	0.14343	0.144611946	-0.001181946
646.24	0.13971	0.144607499	-0.004897499
646.28	0.14598	0.144603052	0.001376948
646.32	0.14328	0.144598606	-0.001318606
646.36	0.14267	0.144594159	-0.001924159
646.4	0.14114	0.144589712	-0.003449712
646.44	0.14043	0.144585265	-0.004155265
646.48	0.1472	0.144580818	0.002619182
646.52	0.13941	0.144576372	-0.005166372
646.56	0.14139	0.144571925	-0.003181925
646.6	0.14252	0.144567478	-0.002047478
646.64	0.14038	0.144563031	-0.004183031
646.68	0.14603	0.144558584	0.001471416
646.72	0.14623	0.144554138	0.001675862
646.76	0.14338	0.144549691	-0.001169691
646.8	0.13676	0.144545244	-0.007785244
646.84	0.14185	0.144540797	-0.002690797
646.88	0.14913	0.14453635	0.00459365
646.92	0.13579	0.144531904	-0.008741904
646.96	0.13778	0.144527457	-0.006747457
647	0.13747	0.14452301	-0.00705301
647.04	0.14328	0.144518563	-0.001238563
647.08	0.1444	0.144514116	-0.000114116
647.12	0.14017	0.14450967	-0.00433967
647.16	0.14715	0.144505223	0.002644777
647.2	0.14796	0.144500776	0.003459224
647.24	0.14134	0.144496329	-0.003156329
647.28	0.14694	0.144491882	0.002448118
647.32	0.14689	0.144487436	0.002402564
647.36	0.14246	0.144482989	-0.002022989
647.4	0.14313	0.144478542	-0.001348542
647.44	0.14063	0.144474095	-0.003844095
647.48	0.15097	0.144469648	0.006500352
647.52	0.14236	0.144465202	-0.002105202
647.56	0.14908	0.144460755	0.004619245
647.6	0.14888	0.144456308	0.004423692
647.64	0.14501	0.144451861	0.000558139
647.68	0.1471	0.144447414	0.002652586
647.72	0.14333	0.144442968	-0.001112968
647.76	0.1444	0.144438521	-3.85208E-05
647.8	0.14318	0.144434074	-0.001254074
647.84	0.14608	0.144429627	0.001650373
647.88	0.14628	0.14442518	0.00185482
647.92	0.1444	0.144420734	-2.07336E-05
647.96	0.14725	0.144416287	0.002833713
648	0.14496	0.14441184	0.00054816
648.04	0.14603	0.144407393	0.001622607
648.08	0.14974	0.144402946	0.005337054
648.12	0.14613	0.1443985	0.0017315
648.16	0.15458	0.144394053	0.010185947
648.2	0.15468	0.144389606	0.010290394
648.24	0.14521	0.144385159	0.000824841
648.28	0.15565	0.144380712	0.011269288
648.32	0.14603	0.144376266	0.001653734
648.36	0.14969	0.144371819	0.005318181
648.4	0.15555	0.144367372	0.011182628
648.44	0.14985	0.144362925	0.005487075
648.48	0.1499	0.144358478	0.005541522
648.52	0.13941	0.144354032	-0.004944032
648.56	0.13401	0.144349585	-0.010339585
648.6	0.14898	0.144345138	0.004634862
648.64	0.15204	0.144340691	0.007699309
648.68	0.14613	0.144336244	0.001793756
648.72	0.14806	0.144331798	0.003728202
648.76	0.15102	0.144327351	0.006692649
648.8	0.15071	0.144322904	0.006387096
648.84	0.13941	0.144318457	-0.004908457
648.88	0.14328	0.14431401	-0.00103401
648.92	0.14715	0.144309564	0.002840436
648.96	0.14221	0.144305117	-0.002095117
649	0.14603	0.14430067	0.00172933
649.04	0.147	0.144296223	0.002703777
649.08	0.14715	0.144291776	0.002858224
649.12	0.14526	0.14428733	0.00097267
649.16	0.14323	0.144282883	-0.001052883
649.2	0.14593	0.144278436	0.001651564
649.24	0.14806	0.144273989	0.003786011
649.28	0.14608	0.144269542	0.001810458
649.32	0.14033	0.144265096	-0.003935096
649.36	0.14048	0.144260649	-0.003780649
649.4	0.14705	0.144256202	0.002793798
649.44	0.14516	0.144251755	0.000908245
649.48	0.14516	0.144247308	0.000912692
649.52	0.14414	0.144242862	-0.000102862
649.56	0.15275	0.144238415	0.008511585
649.6	0.15183	0.144233968	0.007596032
649.64	0.14995	0.144229521	0.005720479
649.68	0.15005	0.144225074	0.005824926
649.72	0.14211	0.144220628	-0.002110628
649.76	0.14124	0.144216181	-0.002976181
649.8	0.14608	0.144211734	0.001868266
649.84	0.14481	0.144207287	0.000602713
649.88	0.1499	0.14420284	0.00569716
649.92	0.15173	0.144198394	0.007531606
649.96	0.15178	0.144193947	0.007586053
650	0.14338	0.1441895	-0.0008095
650.04	0.15	0.144185053	0.005814947
650.08	0.14868	0.144180606	0.004499394
650.12	0.14806	0.14417616	0.00388384
650.16	0.14267	0.144171713	-0.001501713
650.2	0.14231	0.144167266	-0.001857266
650.24	0.14246	0.144162819	-0.001702819
650.28	0.14898	0.144158372	0.004821628
650.32	0.14888	0.144153926	0.004726074
650.36	0.15112	0.144149479	0.006970521
650.4	0.15183	0.144145032	0.007684968
650.44	0.14221	0.144140585	-0.001930585
650.48	0.14323	0.144136138	-0.000906138
650.52	0.14888	0.144131692	0.004748308
650.56	0.14898	0.144127245	0.004852755
650.6	0.14435	0.144122798	0.000227202
650.64	0.14827	0.144118351	0.004151649
650.68	0.14338	0.144113904	-0.000733904
650.72	0.14796	0.144109458	0.003850542
650.76	0.14613	0.144105011	0.002024989
650.8	0.14313	0.144100564	-0.000970564
650.84	0.14343	0.144096117	-0.000666117
650.88	0.14598	0.14409167	0.00188833
650.92	0.14969	0.144087224	0.005602776
650.96	0.14333	0.144082777	-0.000752777
651	0.14995	0.14407833	0.00587167
651.04	0.1443	0.144073883	0.000226117
651.08	0.13941	0.144069436	-0.004659436
651.12	0.14898	0.14406499	0.00491501
651.16	0.14913	0.144060543	0.005069457
651.2	0.14628	0.144056096	0.002223904
651.24	0.14226	0.144051649	-0.001791649
651.28	0.14328	0.144047202	-0.000767202
651.32	0.14791	0.144042756	0.003867244
651.36	0.14593	0.144038309	0.001891691
651.4	0.14145	0.144033862	-0.002583862
651.44	0.1417	0.144029415	-0.002329415
651.48	0.14623	0.144024968	0.002205032
651.52	0.14613	0.144020522	0.002109478
651.56	0.14924	0.144016075	0.005223925
651.6	0.14812	0.144011628	0.004108372
651.64	0.14328	0.144007181	-0.000727181
651.68	0.13498	0.144002734	-0.009022734
651.72	0.13483	0.143998288	-0.009168288
651.76	0.14414	0.143993841	0.000146159
651.8	0.15555	0.143989394	0.011560606
651.84	0.13381	0.143984947	-0.010174947
651.88	0.14119	0.1439805	-0.0027905
651.92	0.14435	0.143976054	0.000373946
651.96	0.14409	0.143971607	0.000118393
652	0.13783	0.14396716	-0.00613716
652.04	0.13763	0.143962713	-0.006332713
652.08	0.13676	0.143958266	-0.007198266
652.12	0.14638	0.14395382	0.00242618
652.16	0.13595	0.143949373	-0.007999373
652.2	0.14328	0.143944926	-0.000664926
652.24	0.15285	0.143940479	0.008909521
652.28	0.14705	0.143936032	0.003113968
652.32	0.14715	0.143931586	0.003218414
652.36	0.15076	0.143927139	0.006832861
652.4	0.14801	0.143922692	0.004087308
652.44	0.14252	0.143918245	-0.001398245
652.48	0.14134	0.143913798	-0.002573798
652.52	0.14903	0.143909352	0.005120648
652.56	0.14985	0.143904905	0.005945095
652.6	0.14985	0.143900458	0.005949542
652.64	0.14343	0.143896011	-0.000466011
652.68	0.15076	0.143891564	0.006868436
652.72	0.14715	0.143887118	0.003262882
652.76	0.14674	0.143882671	0.002857329
652.8	0.14476	0.143878224	0.000881776
652.84	0.14231	0.143873777	-0.001563777
652.88	0.14308	0.14386933	-0.00078933
652.92	0.14348	0.143864884	-0.000384884
652.96	0.15071	0.143860437	0.006849563
653	0.14812	0.14385599	0.00426401
653.04	0.15377	0.143851543	0.009918457
653.08	0.15092	0.143847096	0.007072904
653.12	0.16227	0.14384265	0.01842735
653.16	0.15168	0.143838203	0.007841797
653.2	0.15183	0.143833756	0.007996244
653.24	0.15743	0.143829309	0.013600691
653.28	0.15937	0.143824862	0.015545138
653.32	0.1612	0.143820416	0.017379584
653.36	0.15351	0.143815969	0.009694031
653.4	0.1582	0.143811522	0.014388478
653.44	0.16146	0.143807075	0.017652925
653.48	0.164	0.143802628	0.020197372
653.52	0.16415	0.143798182	0.020351818
653.56	0.15825	0.143793735	0.014456265
653.6	0.1695	0.143789288	0.025710712
653.64	0.16146	0.143784841	0.017675159
653.68	0.16497	0.143780394	0.021189606
653.72	0.17719	0.143775948	0.033414052
653.76	0.17541	0.143771501	0.031638499
653.8	0.17556	0.143767054	0.031792946
653.84	0.16792	0.143762607	0.024157393
653.88	0.18116	0.14375816	0.03740184
653.92	0.18294	0.143753714	0.039186286
653.96	0.19491	0.143749267	0.051160733
654	0.19063	0.14374482	0.04688518
654.04	0.20351	0.143740373	0.059769627
654.08	0.20315	0.143735926	0.059414074
654.12	0.20061	0.14373148	0.05687852
654.16	0.21522	0.143727033	0.071492967
654.2	0.23462	0.143722586	0.090897414
654.24	0.24042	0.143718139	0.096701861
654.28	0.26221	0.143713692	0.118496308
654.32	0.25743	0.143709246	0.113720754
654.36	0.29225	0.143704799	0.148545201
654.4	0.29235	0.143700352	0.148649648
654.44	0.30167	0.143695905	0.157974095
654.48	0.31511	0.143691458	0.171418542
654.52	0.34709	0.143687012	0.203402988
654.56	0.36934	0.143682565	0.225657435
654.6	0.4176	0.143678118	0.273921882
654.64	0.43278	0.143673671	0.289106329
654.68	0.43278	0.143669224	0.289110776
654.72	0.44683	0.143664778	0.303165222
654.76	0.48089	0.143660331	0.337229669
654.8	0.48287	0.143655884	0.339214116
654.84	0.49484	0.143651437	0.351188563
654.88	0.51454	0.14364699	0.37089301
654.92	0.504	0.143642544	0.360357456
654.96	0.51358	0.143638097	0.369941903
655	0.51363	0.14363365	0.36999635
655.04	0.51383	0.143629203	0.370200797
655.08	0.51103	0.143624756	0.367405244
655.12	0.50619	0.14362031	0.36256969
655.16	0.5149	0.143615863	0.371284137
655.2	0.49138	0.143611416	0.347768584
655.24	0.48104	0.143606969	0.337433031
655.28	0.48094	0.143602522	0.337337478
655.32	0.47514	0.143598076	0.331541924
655.36	0.46561	0.143593629	0.322016371
655.4	0.44754	0.143589182	0.303950818
655.44	0.43451	0.143584735	0.290925265
655.48	0.42524	0.143580288	0.281659712
655.52	0.39225	0.143575842	0.248674158
655.56	0.39235	0.143571395	0.248778605
655.6	0.37728	0.143566948	0.233713052
655.64	0.34108	0.143562501	0.197517499
655.68	0.30717	0.143558054	0.163611946
655.72	0.29872	0.143553608	0.155166392
655.76	0.26201	0.143549161	0.118460839
655.8	0.24302	0.143544714	0.099475286
655.84	0.21497	0.143540267	0.071429733
655.88	0.21491	0.14353582	0.07137418
655.92	0.20341	0.143531374	0.059878626
655.96	0.18747	0.143526927	0.043943073
656	0.18488	0.14352248	0.04135752
656.04	0.17164	0.143518033	0.028121967
656.08	0.16874	0.143513586	0.025226414
656.12	0.16202	0.14350914	0.01851086
656.16	0.16212	0.143504693	0.018615307
656.2	0.15367	0.143500246	0.010169754
656.24	0.15458	0.143495799	0.011084201
656.28	0.15295	0.143491352	0.009458648
656.32	0.15295	0.143486906	0.009463094
656.36	0.15158	0.143482459	0.008097541
656.4	0.15336	0.143478012	0.009881988
656.44	0.15367	0.143473565	0.010196435
656.48	0.15641	0.143469118	0.012940882
656.52	0.1499	0.143464672	0.006435328
656.56	0.15188	0.143460225	0.008419775
656.6	0.15468	0.143455778	0.011224222
656.64	0.15367	0.143451331	0.010218669
656.68	0.15372	0.143446884	0.010273116
656.72	0.15163	0.143442438	0.008187562
656.76	0.15209	0.143437991	0.008652009
656.8	0.14435	0.143433544	0.000916456
656.84	0.15372	0.143429097	0.010290903
656.88	0.15015	0.14342465	0.00672535
656.92	0.15173	0.143420204	0.008309796
656.96	0.1498	0.143415757	0.006384243
657	0.14974	0.14341131	0.00632869
657.04	0.14964	0.143406863	0.006233137
657.08	0.1501	0.143402416	0.006697584
657.12	0.1554	0.14339797	0.01200203
657.16	0.14817	0.143393523	0.004776477
657.2	0.15367	0.143389076	0.010280924
657.24	0.14618	0.143384629	0.002795371
657.28	0.14806	0.143380182	0.004679818
657.32	0.14781	0.143375736	0.004434264
657.36	0.14786	0.143371289	0.004488711
657.4	0.15214	0.143366842	0.008773158
657.44	0.15005	0.143362395	0.006687605
657.48	0.1584	0.143357948	0.015042052
657.52	0.1528	0.143353502	0.009446498
657.56	0.1498	0.143349055	0.006450945
657.6	0.15361	0.143344608	0.010265392
657.64	0.15361	0.143340161	0.010269839
657.68	0.15631	0.143335714	0.012974286
657.72	0.1529	0.143331268	0.009568732
657.76	0.1528	0.143326821	0.009473179
657.8	0.14806	0.143322374	0.004737626
657.84	0.15275	0.143317927	0.009432073
657.88	0.15738	0.14331348	0.01406652
657.92	0.15748	0.143309034	0.014170966
657.96	0.15382	0.143304587	0.010515413
658	0.15255	0.14330014	0.00924986
658.04	0.16018	0.143295693	0.016884307
658.08	0.15183	0.143291246	0.008538754
658.12	0.15458	0.1432868	0.0112932
658.16	0.14715	0.143282353	0.003867647
658.2	0.1583	0.143277906	0.015022094
658.24	0.1583	0.143273459	0.015026541
658.28	0.14903	0.143269012	0.005760988
658.32	0.15377	0.143264566	0.010505434
658.36	0.1526	0.143260119	0.009339881
658.4	0.16522	0.143255672	0.021964328
658.44	0.1641	0.143251225	0.020848775
658.48	0.1583	0.143246778	0.015053222
658.52	0.15809	0.143242332	0.014847668
658.56	0.16655	0.143237885	0.023312115
658.6	0.17154	0.143233438	0.028306562
658.64	0.16884	0.143228991	0.025611009
658.68	0.16685	0.143224544	0.023625456
658.72	0.17347	0.143220098	0.030249902
658.76	0.16507	0.143215651	0.021854349
658.8	0.16487	0.143211204	0.021658796
658.84	0.1694	0.143206757	0.026193243
658.88	0.16797	0.14320231	0.02476769
658.92	0.17271	0.143197864	0.029512136
658.96	0.17744	0.143193417	0.034246583
659	0.18029	0.14318897	0.03710103
659.04	0.19618	0.143184523	0.052995477
659.08	0.18752	0.143180076	0.044339924
659.12	0.18762	0.14317563	0.04444437
659.16	0.19893	0.143171183	0.055758817
659.2	0.19037	0.143166736	0.047203264
659.24	0.21206	0.143162289	0.068897711
659.28	0.20285	0.143157842	0.059692158
659.32	0.21059	0.143153396	0.067436604
659.36	0.2196	0.143148949	0.076451051
659.4	0.21965	0.143144502	0.076505498
659.44	0.22179	0.143140055	0.078649945
659.48	0.23004	0.143135608	0.086904392
659.52	0.22255	0.143131162	0.079418838
659.56	0.2365	0.143126715	0.093373285
659.6	0.23284	0.143122268	0.089717732
659.64	0.2419	0.143117821	0.098782179
659.68	0.25076	0.143113374	0.107646626
659.72	0.25086	0.143108928	0.107751072
659.76	0.25269	0.143104481	0.109585519
659.8	0.25453	0.143100034	0.111429966
659.84	0.25845	0.143095587	0.115354413
659.88	0.25173	0.14309114	0.10863886
659.92	0.26308	0.143086694	0.119993306
659.96	0.2753	0.143082247	0.132217753
660	0.27509	0.1430778	0.1320122
660.04	0.27056	0.143073353	0.127486647
660.08	0.267	0.143068906	0.123931094
660.12	0.26308	0.14306446	0.12001554
660.16	0.25824	0.143060013	0.115179987
660.2	0.25824	0.143055566	0.115184434
660.24	0.26211	0.143051119	0.119058881
660.28	0.26206	0.143046672	0.119013328
660.32	0.25203	0.143042226	0.108987774
660.36	0.25096	0.143037779	0.107922221
660.4	0.24129	0.143033332	0.098256668
660.44	0.24714	0.143028885	0.104111115
660.48	0.23564	0.143024438	0.092615562
660.52	0.23849	0.143019992	0.095470008
660.56	0.23289	0.143015545	0.089874455
660.6	0.23273	0.143011098	0.089718902
660.64	0.22627	0.143006651	0.083263349
660.68	0.21105	0.143002204	0.068047796
660.72	0.22245	0.142997758	0.079452242
660.76	0.20931	0.142993311	0.066316689
660.8	0.2084	0.142988864	0.065411136
660.84	0.19511	0.142984417	0.052125583
660.88	0.19536	0.14297997	0.05238003
660.92	0.20249	0.142975524	0.059514476
660.96	0.19419	0.142971077	0.051218923
661	0.19348	0.14296663	0.05051337
661.04	0.18289	0.142962183	0.039927817
661.08	0.18187	0.142957736	0.038912264
661.12	0.16863	0.14295329	0.02567671
661.16	0.16858	0.142948843	0.025631157
661.2	0.17561	0.142944396	0.032665604
661.24	0.17994	0.142939949	0.037000051
661.28	0.17734	0.142935502	0.034404498
661.32	0.17255	0.142931056	0.029618944
661.36	0.16135	0.142926609	0.018423391
661.4	0.16532	0.142922162	0.022397838
661.44	0.16426	0.142917715	0.021342285
661.48	0.1639	0.142913268	0.020986732
661.52	0.16415	0.142908822	0.021241178
661.56	0.16507	0.142904375	0.022165625
661.6	0.15815	0.142899928	0.015250072
661.64	0.15453	0.142895481	0.011634519
661.68	0.15377	0.142891034	0.010878966
661.72	0.16003	0.142886588	0.017143412
661.76	0.16018	0.142882141	0.017297859
661.8	0.15178	0.142877694	0.008902306
661.84	0.15606	0.142873247	0.013186753
661.88	0.14506	0.1428688	0.0021912
661.92	0.15387	0.142864354	0.011005646
661.96	0.14873	0.142859907	0.005870093
662	0.15005	0.14285546	0.00719454
662.04	0.15458	0.142851013	0.011728987
662.08	0.15468	0.142846566	0.011833434
662.12	0.14603	0.14284212	0.00318788
662.16	0.14974	0.142837673	0.006902327
662.2	0.14537	0.142833226	0.002536774
662.24	0.14414	0.142828779	0.001311221
662.28	0.15443	0.142824332	0.011605668
662.32	0.14694	0.142819886	0.004120114
662.36	0.14715	0.142815439	0.004334561
662.4	0.15275	0.142810992	0.009939008
662.44	0.14633	0.142806545	0.003523455
662.48	0.15692	0.142802098	0.014117902
662.52	0.14781	0.142797652	0.005012348
662.56	0.15575	0.142793205	0.012956795
662.6	0.14313	0.142788758	0.000341242
662.64	0.14353	0.142784311	0.000745689
662.68	0.13966	0.142779864	-0.003119864
662.72	0.14445	0.142775418	0.001674582
662.76	0.15092	0.142770971	0.008149029
662.8	0.14017	0.142766524	-0.002596524
662.84	0.13493	0.142762077	-0.007832077
662.88	0.14063	0.14275763	-0.00212763
662.92	0.14633	0.142753184	0.003576816
662.96	0.14593	0.142748737	0.003181263
663	0.13753	0.14274429	-0.00521429
663.04	0.13595	0.142739843	-0.006789843
663.08	0.14903	0.142735396	0.006294604
663.12	0.14603	0.14273095	0.00329905
663.16	0.15153	0.142726503	0.008803497
663.2	0.13839	0.142722056	-0.004332056
663.24	0.13859	0.142717609	-0.004127609
663.28	0.14806	0.142713162	0.005346838
663.32	0.14801	0.142708716	0.005301284
663.36	0.13498	0.142704269	-0.007724269
663.4	0.14694	0.142699822	0.004240178
663.44	0.14048	0.142695375	-0.002215375
663.48	0.14048	0.142690928	-0.002210928
663.52	0.14496	0.142686482	0.002273518
663.56	0.14532	0.142682035	0.002637965
663.6	0.14012	0.142677588	-0.002557588
663.64	0.14027	0.142673141	-0.002403141
663.68	0.14206	0.142668694	-0.000608694
663.72	0.14593	0.142664248	0.003265752
663.76	0.14109	0.142659801	-0.001569801
663.8	0.13753	0.142655354	-0.005125354
663.84	0.13758	0.142650907	-0.005070907
663.88	0.14618	0.14264646	0.00353354
663.92	0.14806	0.142642014	0.005417986
663.96	0.13661	0.142637567	-0.006027567
664	0.14425	0.14263312	0.00161688
664.04	0.14608	0.142628673	0.003451327
664.08	0.13885	0.142624226	-0.003774226
664.12	0.13844	0.14261978	-0.00417978
664.16	0.14333	0.142615333	0.000714667
664.2	0.13478	0.142610886	-0.007830886
664.24	0.13926	0.142606439	-0.003346439
664.28	0.14124	0.142601992	-0.001361992
664.32	0.14313	0.142597546	0.000532454
664.36	0.13585	0.142593099	-0.006743099
664.4	0.14521	0.142588652	0.002621348
664.44	0.14532	0.142584205	0.002735795
664.48	0.13732	0.142579758	-0.005259758
664.52	0.14048	0.142575312	-0.002095312
664.56	0.13844	0.142570865	-0.004130865
664.6	0.14252	0.142566418	-4.6418E-05
664.64	0.13926	0.142561971	-0.003301971
664.68	0.14048	0.142557524	-0.002077524
664.72	0.14073	0.142553078	-0.001823078
664.76	0.14694	0.142548631	0.004391369
664.8	0.14221	0.142544184	-0.000334184
664.84	0.13941	0.142539737	-0.003129737
664.88	0.14323	0.14253529	0.00069471
664.92	0.14033	0.142530844	-0.002200844
664.96	0.13758	0.142526397	-0.004946397
665	0.13747	0.14252195	-0.00505195
665.04	0.13391	0.142517503	-0.008607503
665.08	0.14241	0.142513056	-0.000103056
665.12	0.14435	0.14250861	0.00184139
665.16	0.14134	0.142504163	-0.001164163
665.2	0.14221	0.142499716	-0.000289716
665.24	0.13849	0.142495269	-0.004005269
665.28	0.14506	0.142490822	0.002569178
665.32	0.14496	0.142486376	0.002473624
665.36	0.13951	0.142481929	-0.002971929
665.4	0.14684	0.142477482	0.004362518
665.44	0.14898	0.142473035	0.006506965
665.48	0.13732	0.142468588	-0.005148588
665.52	0.13961	0.142464142	-0.002854142
665.56	0.13875	0.142459695	-0.003709695
665.6	0.13875	0.142455248	-0.003705248
665.64	0.14822	0.142450801	0.005769199
665.68	0.13936	0.142446354	-0.003086354
665.72	0.14435	0.142441908	0.001908092
665.76	0.13859	0.142437461	-0.003847461
665.8	0.14211	0.142433014	-0.000323014
665.84	0.13666	0.142428567	-0.005768567
665.88	0.14318	0.14242412	0.00075588
665.92	0.14348	0.142419674	0.001060326
665.96	0.13854	0.142415227	-0.003875227
666	0.1333	0.14241078	-0.00911078
666.04	0.15097	0.142406333	0.008563667
666.08	0.15086	0.142401886	0.008458114
666.12	0.14124	0.14239744	-0.00115744
666.16	0.14063	0.142392993	-0.001762993
666.2	0.14033	0.142388546	-0.002058546
666.24	0.14221	0.142384099	-0.000174099
666.28	0.14027	0.142379652	-0.002109652
666.32	0.14328	0.142375206	0.000904794
666.36	0.14012	0.142370759	-0.002250759
666.4	0.14236	0.142366312	-6.312E-06
666.44	0.14343	0.142361865	0.001068135
666.48	0.14323	0.142357418	0.000872582
666.52	0.14043	0.142352972	-0.001922972
666.56	0.1442	0.142348525	0.001851475
666.6	0.14786	0.142344078	0.005515922
666.64	0.1389	0.142339631	-0.003439631
666.68	0.13865	0.142335184	-0.003685184
666.72	0.14491	0.142330738	0.002579262
666.76	0.13666	0.142326291	-0.005666291
666.8	0.13671	0.142321844	-0.005611844
666.84	0.13865	0.142317397	-0.003667397
666.88	0.14145	0.14231295	-0.00086295
666.92	0.14145	0.142308504	-0.000858504
666.96	0.13737	0.142304057	-0.004934057
667	0.13747	0.14229961	-0.00482961
667.04	0.13294	0.142295163	-0.009355163
667.08	0.1332	0.142290716	-0.009090716
667.12	0.13279	0.14228627	-0.00949627
667.16	0.14048	0.142281823	-0.001801823
667.2	0.13024	0.142277376	-0.012037376
667.24	0.13961	0.142272929	-0.002662929
667.28	0.14221	0.142268482	-5.84824E-05
667.32	0.14134	0.142264036	-0.000924036
667.36	0.14124	0.142259589	-0.001019589
667.4	0.14226	0.142255142	4.858E-06
667.44	0.14806	0.142250695	0.005809305
667.48	0.14348	0.142246248	0.001233752
667.52	0.14333	0.142241802	0.001088198
667.56	0.14343	0.142237355	0.001192645
667.6	0.14022	0.142232908	-0.002012908
667.64	0.13921	0.142228461	-0.003018461
667.68	0.13961	0.142224014	-0.002614014
667.72	0.14781	0.142219568	0.005590432
667.76	0.13859	0.142215121	-0.003625121
667.8	0.14414	0.142210674	0.001929326
667.84	0.13686	0.142206227	-0.005346227
667.88	0.14801	0.14220178	0.00580822
667.92	0.13921	0.142197334	-0.002987334
667.96	0.13926	0.142192887	-0.002932887
668	0.13381	0.14218844	-0.00837844
668.04	0.14252	0.142183993	0.000336007
668.08	0.14134	0.142179546	-0.000839546
668.12	0.13946	0.1421751	-0.0027151
668.16	0.14058	0.142170653	-0.001590653
668.2	0.13676	0.142166206	-0.005406206
668.24	0.14486	0.142161759	0.002698241
668.28	0.14562	0.142157312	0.003462688
668.32	0.14608	0.142152866	0.003927134
668.36	0.14139	0.142148419	-0.000758419
668.4	0.13483	0.142143972	-0.007313972
668.44	0.14333	0.142139525	0.001190475
668.48	0.14338	0.142135078	0.001244922
668.52	0.13951	0.142130632	-0.002620632
668.56	0.13936	0.142126185	-0.002766185
668.6	0.13742	0.142121738	-0.004701738
668.64	0.13859	0.142117291	-0.003527291
668.68	0.13931	0.142112844	-0.002802844
668.72	0.14323	0.142108398	0.001121602
668.76	0.13763	0.142103951	-0.004473951
668.8	0.1444	0.142099504	0.002300496
668.84	0.1446	0.142095057	0.002504943
668.88	0.13941	0.14209061	-0.00268061
668.92	0.13768	0.142086164	-0.004406164
668.96	0.13671	0.142081717	-0.005371717
669	0.13956	0.14207727	-0.00251727
669.04	0.14063	0.142072823	-0.001442823
669.08	0.13315	0.142068376	-0.008918376
669.12	0.13661	0.14206393	-0.00545393
669.16	0.13661	0.142059483	-0.005449483
669.2	0.136	0.142055036	-0.006055036
669.24	0.14369	0.142050589	0.001639411
669.28	0.14038	0.142046142	-0.001666142
669.32	0.14333	0.142041696	0.001288304
669.36	0.14694	0.142037249	0.004902751
669.4	0.14048	0.142032802	-0.001552802
669.44	0.14022	0.142028355	-0.001808355
669.48	0.14425	0.142023908	0.002226092
669.52	0.14501	0.142019462	0.002990538
669.56	0.14241	0.142015015	0.000394985
669.6	0.13992	0.142010568	-0.002090568
669.64	0.13956	0.142006121	-0.002446121
669.68	0.14068	0.142001674	-0.001321674
669.72	0.14017	0.141997228	-0.001827228
669.76	0.13615	0.141992781	-0.005842781
669.8	0.13941	0.141988334	-0.002578334
669.84	0.1473	0.141983887	0.005316113
669.88	0.14033	0.14197944	-0.00164944
669.92	0.14918	0.141974994	0.007205006
669.96	0.14506	0.141970547	0.003089453
670	0.14837	0.1419661	0.0064039
670.04	0.14817	0.141961653	0.006208347
670.08	0.1416	0.141957206	-0.000357206
670.12	0.14521	0.14195276	0.00325724
670.16	0.14353	0.141948313	0.001581687
670.2	0.13956	0.141943866	-0.002383866
670.24	0.153	0.141939419	0.011060581
670.28	0.14618	0.141934972	0.004245028
670.32	0.14608	0.141930526	0.004149474
670.36	0.14022	0.141926079	-0.001706079
670.4	0.1443	0.141921632	0.002378368
670.44	0.14705	0.141917185	0.005132815
670.48	0.14058	0.141912738	-0.001332738
670.52	0.14048	0.141908292	-0.001428292
670.56	0.15484	0.141903845	0.012936155
670.6	0.14715	0.141899398	0.005250602
670.64	0.14689	0.141894951	0.004995049
670.68	0.14516	0.141890504	0.003269496
670.72	0.14328	0.141886058	0.001393942
670.76	0.14715	0.141881611	0.005268389
670.8	0.13875	0.141877164	-0.003127164
670.84	0.1501	0.141872717	0.008227283
670.88	0.13849	0.14186827	-0.00337827
670.92	0.13839	0.141863824	-0.003473824
670.96	0.15117	0.141859377	0.009310623
671	0.13941	0.14185493	-0.00244493
671.04	0.14974	0.141850483	0.007889517
671.08	0.14516	0.141846036	0.003313964
671.12	0.14445	0.14184159	0.00260841
671.16	0.1415	0.141837143	-0.000337143
671.2	0.14134	0.141832696	-0.000492696
671.24	0.15005	0.141828249	0.008221751
671.28	0.13768	0.141823802	-0.004143802
671.32	0.1471	0.141819356	0.005280644
671.36	0.14995	0.141814909	0.008135091
671.4	0.14333	0.141810462	0.001519538
671.44	0.14776	0.141806015	0.005953985
671.48	0.14511	0.141801568	0.003308432
671.52	0.14511	0.141797122	0.003312878
671.56	0.14058	0.141792675	-0.001212675
671.6	0.15107	0.141788228	0.009281772
671.64	0.13747	0.141783781	-0.004313781
671.68	0.13574	0.141779334	-0.006039334
671.72	0.13966	0.141774888	-0.002114888
671.76	0.14048	0.141770441	-0.001290441
671.8	0.14043	0.141765994	-0.001335994
671.84	0.14353	0.141761547	0.001768453
671.88	0.14139	0.1417571	-0.0003671
671.92	0.14129	0.141752654	-0.000462654
671.96	0.14608	0.141748207	0.004331793
672	0.14114	0.14174376	-0.00060376
672.04	0.13829	0.141739313	-0.003449313
672.08	0.14119	0.141734866	-0.000544866
672.12	0.14134	0.14173042	-0.00039042
672.16	0.14796	0.141725973	0.006234027
672.2	0.13366	0.141721526	-0.008061526
672.24	0.14516	0.141717079	0.003442921
672.28	0.13854	0.141712632	-0.003172632
672.32	0.15183	0.141708186	0.010121814
672.36	0.14435	0.141703739	0.002646261
672.4	0.14399	0.141699292	0.002290708
672.44	0.13401	0.141694845	-0.007684845
672.48	0.14043	0.141690398	-0.001260398
672.52	0.13865	0.141685952	-0.003035952
672.56	0.13315	0.141681505	-0.008531505
672.6	0.14058	0.141677058	-0.001097058
672.64	0.1415	0.141672611	-0.000172611
672.68	0.14124	0.141668164	-0.000428164
672.72	0.13854	0.141663718	-0.003123718
672.76	0.13753	0.141659271	-0.004129271
672.8	0.14257	0.141654824	0.000915176
672.84	0.13941	0.141650377	-0.002240377
672.88	0.14333	0.14164593	0.00168407
672.92	0.14038	0.141641484	-0.001261484
672.96	0.13936	0.141637037	-0.002277037
673	0.13956	0.14163259	-0.00207259
673.04	0.13844	0.141628143	-0.003188143
673.08	0.14333	0.141623696	0.001706304
673.12	0.14231	0.14161925	0.00069075
673.16	0.14521	0.141614803	0.003595197
673.2	0.13493	0.141610356	-0.006680356
673.24	0.14526	0.141605909	0.003654091
673.28	0.14532	0.141601462	0.003718538
673.32	0.13671	0.141597016	-0.004887016
673.36	0.14236	0.141592569	0.000767431
673.4	0.14358	0.141588122	0.001991878
673.44	0.14048	0.141583675	-0.001103675
673.48	0.13758	0.141579228	-0.003999228
673.52	0.13686	0.141574782	-0.004714782
673.56	0.13661	0.141570335	-0.004960335
673.6	0.13742	0.141565888	-0.004145888
673.64	0.13854	0.141561441	-0.003021441
673.68	0.14241	0.141556994	0.000853006
673.72	0.14343	0.141552548	0.001877452
673.76	0.14236	0.141548101	0.000811899
673.8	0.1332	0.141543654	-0.008343654
673.84	0.13956	0.141539207	-0.001979207
673.88	0.13946	0.14153476	-0.00207476
673.92	0.13574	0.141530314	-0.005790314
673.96	0.14333	0.141525867	0.001804133
674	0.13666	0.14152142	-0.00486142
674.04	0.14694	0.141516973	0.005423027
674.08	0.13503	0.141512526	-0.006482526
674.12	0.14027	0.14150808	-0.00123808
674.16	0.14053	0.141503633	-0.000973633
674.2	0.13865	0.141499186	-0.002849186
674.24	0.13854	0.141494739	-0.002954739
674.28	0.14068	0.141490292	-0.000810292
674.32	0.1501	0.141485846	0.008614154
674.36	0.13758	0.141481399	-0.003901399
674.4	0.13503	0.141476952	-0.006446952
674.44	0.13854	0.141472505	-0.002932505
674.48	0.13839	0.141468058	-0.003078058
674.52	0.13579	0.141463612	-0.005673612
674.56	0.13457	0.141459165	-0.006889165
674.6	0.14501	0.141454718	0.003555282
674.64	0.14985	0.141450271	0.008399729
674.68	0.13376	0.141445824	-0.007685824
674.72	0.14033	0.141441378	-0.001111378
674.76	0.14053	0.141436931	-0.000906931
674.8	0.14134	0.141432484	-9.2484E-05
674.84	0.14526	0.141428037	0.003831963
674.88	0.14516	0.14142359	0.00373641
674.92	0.14511	0.141419144	0.003690856
674.96	0.14038	0.141414697	-0.001034697
675	0.13946	0.14141025	-0.00195025
675.04	0.13946	0.141405803	-0.001945803
675.08	0.14308	0.141401356	0.001678644
675.12	0.14053	0.14139691	-0.00086691
675.16	0.13478	0.141392463	-0.006612463
675.2	0.1471	0.141388016	0.005711984
675.24	0.14124	0.141383569	-0.000143569
675.28	0.13513	0.141379122	-0.006249122
675.32	0.14033	0.141374676	-0.001044676
675.36	0.14063	0.141370229	-0.000740229
675.4	0.13961	0.141365782	-0.001755782
675.44	0.136	0.141361335	-0.005361335
675.48	0.14216	0.141356888	0.000803112
675.52	0.14593	0.141352442	0.004577558
675.56	0.14425	0.141347995	0.002902005
675.6	0.14506	0.141343548	0.003716452
675.64	0.14526	0.141339101	0.003920899
675.68	0.14043	0.141334654	-0.000904654
675.72	0.14618	0.141330208	0.004849792
675.76	0.13493	0.141325761	-0.006395761
675.8	0.14027	0.141321314	-0.001051314
675.84	0.13865	0.141316867	-0.002666867
675.88	0.14425	0.14131242	0.00293758
675.92	0.1445	0.141307974	0.003192026
675.96	0.13961	0.141303527	-0.001693527
676	0.14038	0.14129908	-0.00091908
676.04	0.13182	0.141294633	-0.009474633
676.08	0.13203	0.141290186	-0.009260186
676.12	0.13661	0.14128574	-0.00467574
676.16	0.13971	0.141281293	-0.001571293
676.2	0.14109	0.141276846	-0.000186846
676.24	0.14119	0.141272399	-8.23992E-05
676.28	0.13854	0.141267952	-0.002727952
676.32	0.14328	0.141263506	0.002016494
676.36	0.13844	0.141259059	-0.002819059
676.4	0.14532	0.141254612	0.004065388
676.44	0.14532	0.141250165	0.004069835
676.48	0.13391	0.141245718	-0.007335718
676.52	0.13386	0.141241272	-0.007381272
676.56	0.13732	0.141236825	-0.003916825
676.6	0.14404	0.141232378	0.002807622
676.64	0.14506	0.141227931	0.003832069
676.68	0.14318	0.141223484	0.001956516
676.72	0.13763	0.141219038	-0.003589038
676.76	0.14806	0.141214591	0.006845409
676.8	0.14506	0.141210144	0.003849856
676.84	0.14516	0.141205697	0.003954303
676.88	0.13595	0.14120125	-0.00525125
676.92	0.13941	0.141196804	-0.001786804
676.96	0.14053	0.141192357	-0.000662357
677	0.13681	0.14118791	-0.00437791
677.04	0.13747	0.141183463	-0.003713463
677.08	0.14526	0.141179016	0.004080984
677.12	0.14511	0.14117457	0.00393543
677.16	0.1445	0.141170123	0.003329877
677.2	0.14246	0.141165676	0.001294324
677.24	0.13478	0.141161229	-0.006381229
677.28	0.14058	0.141156782	-0.000576782
677.32	0.14598	0.141152336	0.004827664
677.36	0.15204	0.141147889	0.010892111
677.4	0.15188	0.141143442	0.010736558
677.44	0.13498	0.141138995	-0.006158995
677.48	0.13758	0.141134548	-0.003554548
677.52	0.14257	0.141130102	0.001439898
677.56	0.1387	0.141125655	-0.002425655
677.6	0.14252	0.141121208	0.001398792
677.64	0.14338	0.141116761	0.002263239
677.68	0.14613	0.141112314	0.005017686
677.72	0.14582	0.141107868	0.004712132
677.76	0.14114	0.141103421	3.65792E-05
677.8	0.1526	0.141098974	0.011501026
677.84	0.1446	0.141094527	0.003505473
677.88	0.13966	0.14109008	-0.00143008
677.92	0.14058	0.141085634	-0.000505634
677.96	0.1415	0.141081187	0.000418813
678	0.14134	0.14107674	0.00026326
678.04	0.13778	0.141072293	-0.003292293
678.08	0.14348	0.141067846	0.002412154
678.12	0.14114	0.1410634	7.66004E-05
678.16	0.14328	0.141058953	0.002221047
678.2	0.14114	0.141054506	8.5494E-05
678.24	0.13931	0.141050059	-0.001740059
678.28	0.14226	0.141045612	0.001214388
678.32	0.14246	0.141041166	0.001418834
678.36	0.14435	0.141036719	0.003313281
678.4	0.13778	0.141032272	-0.003252272
678.44	0.14689	0.141027825	0.005862175
678.48	0.13941	0.141023378	-0.001613378
678.52	0.13859	0.141018932	-0.002428932
678.56	0.14134	0.141014485	0.000325515
678.6	0.14119	0.141010038	0.000179962
678.64	0.13849	0.141005591	-0.002515591
678.68	0.13971	0.141001144	-0.001291144
678.72	0.13849	0.140996698	-0.002506698
678.76	0.14445	0.140992251	0.003457749
678.8	0.13824	0.140987804	-0.002747804
678.84	0.14358	0.140983357	0.002596643
678.88	0.14333	0.14097891	0.00235109
678.92	0.14119	0.140974464	0.000215536
678.96	0.13854	0.140970017	-0.002430017
679	0.14226	0.14096557	0.00129443
679.04	0.14343	0.140961123	0.002468877
679.08	0.14613	0.140956676	0.005173324
679.12	0.13941	0.14095223	-0.00154223
679.16	0.14796	0.140947783	0.007012217
679.2	0.14801	0.140943336	0.007066664
679.24	0.15168	0.140938889	0.010741111
679.28	0.13483	0.140934442	-0.006104442
679.32	0.14633	0.140929996	0.005400004
679.36	0.13681	0.140925549	-0.004115549
679.4	0.14822	0.140921102	0.007298898
679.44	0.13946	0.140916655	-0.001456655
679.48	0.13977	0.140912208	-0.001142208
679.52	0.13956	0.140907762	-0.001347762
679.56	0.13859	0.140903315	-0.002313315
679.6	0.13686	0.140898868	-0.004038868
679.64	0.14053	0.140894421	-0.000364421
679.68	0.13849	0.140889974	-0.002399974
679.72	0.1331	0.140885528	-0.007785528
679.76	0.13284	0.140881081	-0.008041081
679.8	0.14796	0.140876634	0.007083366
679.84	0.14705	0.140872187	0.006177813
679.88	0.13681	0.14086774	-0.00405774
679.92	0.136	0.140863294	-0.004863294
679.96	0.14348	0.140858847	0.002621153