	m	t	
f	0.00025365	-0.0394	
			
			
X in nm	Y Signal 	f	y-f
560.04	0.1028	0.102654146	0.000145854
560.08	0.10194	0.102664292	-0.000724292
560.12	0.10647	0.102674438	0.003795562
560.16	0.10845	0.102684584	0.005765416
560.2	0.10285	0.10269473	0.00015527
560.24	0.10947	0.102704876	0.006765124
560.28	0.10647	0.102715022	0.003754978
560.32	0.10642	0.102725168	0.003694832
560.36	0.1112	0.102735314	0.008464686
560.4	0.1026	0.10274546	-0.00014546
560.44	0.11003	0.102755606	0.007274394
560.48	0.1113	0.102765752	0.008534248
560.52	0.11105	0.102775898	0.008274102
560.56	0.11029	0.102786044	0.007503956
560.6	0.11029	0.10279619	0.00749381
560.64	0.10087	0.102806336	-0.001936336
560.68	0.10295	0.102816482	0.000133518
560.72	0.09995	0.102826628	-0.002876628
560.76	0.10835	0.102836774	0.005513226
560.8	0.10026	0.10284692	-0.00258692
560.84	0.10845	0.102857066	0.005592934
560.88	0.10382	0.102867212	0.000952788
560.92	0.10402	0.102877358	0.001142642
560.96	0.11034	0.102887504	0.007452496
561	0.1084	0.10289765	0.00550235
561.04	0.09995	0.102907796	-0.002957796
561.08	0.10845	0.102917942	0.005532058
561.12	0.10453	0.102928088	0.001601912
561.16	0.10367	0.102938234	0.000731766
561.2	0.10382	0.10294838	0.00087162
561.24	0.09995	0.102958526	-0.003008526
561.28	0.10642	0.102968672	0.003451328
561.32	0.11217	0.102978818	0.009191182
561.36	0.1053	0.102988964	0.002311036
561.4	0.10825	0.10299911	0.00525089
561.44	0.10453	0.103009256	0.001520744
561.48	0.10428	0.103019402	0.001260598
561.52	0.1084	0.103029548	0.005370452
561.56	0.10637	0.103039694	0.003330306
561.6	0.11115	0.10304984	0.00810016
561.64	0.1055	0.103059986	0.002440014
561.68	0.1056	0.103070132	0.002529868
561.72	0.10464	0.103080278	0.001559722
561.76	0.10402	0.103090424	0.000929576
561.8	0.10382	0.10310057	0.00071943
561.84	0.10581	0.103110716	0.002699284
561.88	0.1055	0.103120862	0.002379138
561.92	0.10194	0.103131008	-0.001191008
561.96	0.1028	0.103141154	-0.000341154
562	0.10168	0.1031513	-0.0014713
562.04	0.11029	0.103161446	0.007128554
562.08	0.11044	0.103171592	0.007268408
562.12	0.10835	0.103181738	0.005168262
562.16	0.11044	0.103191884	0.007248116
562.2	0.1084	0.10320203	0.00519797
562.24	0.10372	0.103212176	0.000507824
562.28	0.10754	0.103222322	0.004317678
562.32	0.10392	0.103232468	0.000687532
562.36	0.10372	0.103242614	0.000477386
562.4	0.1056	0.10325276	0.00234724
562.44	0.10469	0.103262906	0.001427094
562.48	0.09695	0.103273052	-0.006323052
562.52	0.10733	0.103283198	0.004046802
562.56	0.1026	0.103293344	-0.000693344
562.6	0.11217	0.10330349	0.00886651
562.64	0.11105	0.103313636	0.007736364
562.68	0.11136	0.103323782	0.008036218
562.72	0.11039	0.103333928	0.007056072
562.76	0.10937	0.103344074	0.006025926
562.8	0.10626	0.10335422	0.00290578
562.84	0.11018	0.103364366	0.006815634
562.88	0.10647	0.103374512	0.003095488
562.92	0.10265	0.103384658	-0.000734658
562.96	0.10265	0.103394804	-0.000744804
563	0.10265	0.10340495	-0.00075495
563.04	0.10744	0.103415096	0.004024904
563.08	0.10825	0.103425242	0.004824758
563.12	0.1029	0.103435388	-0.000535388
563.16	0.10555	0.103445534	0.002104466
563.2	0.11029	0.10345568	0.00683432
563.24	0.10189	0.103465826	-0.001575826
563.28	0.10194	0.103475972	-0.001535972
563.32	0.10642	0.103486118	0.002933882
563.36	0.10469	0.103496264	0.001193736
563.4	0.10713	0.10350641	0.00362359
563.44	0.10301	0.103516556	-0.000506556
563.48	0.10896	0.103526702	0.005433298
563.52	0.10453	0.103536848	0.000993152
563.56	0.10448	0.103546994	0.000933006
563.6	0.10464	0.10355714	0.00108286
563.64	0.10448	0.103567286	0.000912714
563.68	0.1056	0.103577432	0.002022568
563.72	0.11008	0.103587578	0.006492422
563.76	0.10657	0.103597724	0.002972276
563.8	0.10856	0.10360787	0.00495213
563.84	0.1084	0.103618016	0.004781984
563.88	0.10759	0.103628162	0.003961838
563.92	0.10097	0.103638308	-0.002668308
563.96	0.10749	0.103648454	0.003841546
564	0.10092	0.1036586	-0.0027386
564.04	0.10474	0.103668746	0.001071254
564.08	0.11298	0.103678892	0.009301108
564.12	0.10295	0.103689038	-0.000739038
564.16	0.10301	0.103699184	-0.000689184
564.2	0.1055	0.10370933	0.00179067
564.24	0.1139	0.103719476	0.010180524
564.28	0.10759	0.103729622	0.003860378
564.32	0.11624	0.103739768	0.012500232
564.36	0.11803	0.103749914	0.014280086
564.4	0.11594	0.10376006	0.01217994
564.44	0.11599	0.103770206	0.012219794
564.48	0.11884	0.103780352	0.015059648
564.52	0.11472	0.103790498	0.010929502
564.56	0.11976	0.103800644	0.015959356
564.6	0.11853	0.10381079	0.01471921
564.64	0.12836	0.103820936	0.024539064
564.68	0.12622	0.103831082	0.022388918
564.72	0.12607	0.103841228	0.022228772
564.76	0.12648	0.103851374	0.022628626
564.8	0.1275	0.10386152	0.02363848
564.84	0.13223	0.103871666	0.028358334
564.88	0.14257	0.103881812	0.038688188
564.92	0.1331	0.103891958	0.029208042
564.96	0.13498	0.103902104	0.031077896
565	0.14119	0.10391225	0.03727775
565.04	0.14134	0.103922396	0.037417604
565.08	0.13875	0.103932542	0.034817458
565.12	0.15443	0.103942688	0.050487312
565.16	0.14313	0.103952834	0.039177166
565.2	0.147	0.10396298	0.04303702
565.24	0.1555	0.103973126	0.051526874
565.28	0.14313	0.103983272	0.039146728
565.32	0.14313	0.103993418	0.039136582
565.36	0.14313	0.104003564	0.039126436
565.4	0.14526	0.10401371	0.04124629
565.44	0.15377	0.104023856	0.049746144
565.48	0.15081	0.104034002	0.046775998
565.52	0.147	0.104044148	0.042955852
565.56	0.14236	0.104054294	0.038305706
565.6	0.14689	0.10406444	0.04282556
565.64	0.14705	0.104074586	0.042975414
565.68	0.14257	0.104084732	0.038485268
565.72	0.14959	0.104094878	0.045495122
565.76	0.13951	0.104105024	0.035404976
565.8	0.14043	0.10411517	0.03631483
565.84	0.13936	0.104125316	0.035234684
565.88	0.14033	0.104135462	0.036194538
565.92	0.14063	0.104145608	0.036484392
565.96	0.13208	0.104155754	0.027924246
566	0.14893	0.1041659	0.0447641
566.04	0.13228	0.104176046	0.028103954
566.08	0.12729	0.104186192	0.023103808
566.12	0.12836	0.104196338	0.024163662
566.16	0.12892	0.104206484	0.024713516
566.2	0.12928	0.10421663	0.02506337
566.24	0.13019	0.104226776	0.025963224
566.28	0.12984	0.104236922	0.025603078
566.32	0.12831	0.104247068	0.024062932
566.36	0.11782	0.104257214	0.013562786
566.4	0.1139	0.10426736	0.00963264
566.44	0.11696	0.104277506	0.012682494
566.48	0.11482	0.104287652	0.010532348
566.52	0.11487	0.104297798	0.010572202
566.56	0.11207	0.104307944	0.007762056
566.6	0.11411	0.10431809	0.00979191
566.64	0.1056	0.104328236	0.001271764
566.68	0.1084	0.104338382	0.004061618
566.72	0.10835	0.104348528	0.004001472
566.76	0.11395	0.104358674	0.009591326
566.8	0.11416	0.10436882	0.00979118
566.84	0.11227	0.104378966	0.007891034
566.88	0.10728	0.104389112	0.002890888
566.92	0.10917	0.104399258	0.004770742
566.96	0.10637	0.104409404	0.001960596
567	0.10265	0.10441955	-0.00176955
567.04	0.10754	0.104429696	0.003110304
567.08	0.1057	0.104439842	0.001260158
567.12	0.10555	0.104449988	0.001100012
567.16	0.10738	0.104460134	0.002919866
567.2	0.1055	0.10447028	0.00102972
567.24	0.10265	0.104480426	-0.001830426
567.28	0.11105	0.104490572	0.006559428
567.32	0.10372	0.104500718	-0.000780718
567.36	0.10764	0.104510864	0.003129136
567.4	0.10738	0.10452101	0.00285899
567.44	0.10733	0.104531156	0.002798844
567.48	0.10657	0.104541302	0.002028698
567.52	0.11563	0.104551448	0.011078552
567.56	0.11502	0.104561594	0.010458406
567.6	0.11436	0.10457174	0.00978826
567.64	0.11589	0.104581886	0.011308114
567.68	0.11589	0.104592032	0.011297968
567.72	0.11385	0.104602178	0.009247822
567.76	0.11696	0.104612324	0.012347676
567.8	0.11314	0.10462247	0.00851753
567.84	0.12042	0.104632616	0.015787384
567.88	0.12459	0.104642762	0.019947238
567.92	0.12016	0.104652908	0.015507092
567.96	0.12724	0.104663054	0.022576946
568	0.12729	0.1046732	0.0226168
568.04	0.12449	0.104683346	0.019806654
568.08	0.12729	0.104693492	0.022596508
568.12	0.13396	0.104703638	0.029256362
568.16	0.12923	0.104713784	0.024516216
568.2	0.13849	0.10472393	0.03376607
568.24	0.13921	0.104734076	0.034475924
568.28	0.13936	0.104744222	0.034615778
568.32	0.14053	0.104754368	0.035775632
568.36	0.13574	0.104764514	0.030975486
568.4	0.13946	0.10477466	0.03468534
568.44	0.13661	0.104784806	0.031825194
568.48	0.14806	0.104794952	0.043265048
568.52	0.13956	0.104805098	0.034754902
568.56	0.13982	0.104815244	0.035004756
568.6	0.14134	0.10482539	0.03651461
568.64	0.1471	0.104835536	0.042264464
568.68	0.13773	0.104845682	0.032884318
568.72	0.1474	0.104855828	0.042544172
568.76	0.14221	0.104865974	0.037344026
568.8	0.14801	0.10487612	0.04313388
568.84	0.14521	0.104886266	0.040323734
568.88	0.14501	0.104896412	0.040113588
568.92	0.13783	0.104906558	0.032923442
568.96	0.13289	0.104916704	0.027973296
569	0.12928	0.10492685	0.02435315
569.04	0.13004	0.104936996	0.025103004
569.08	0.13371	0.104947142	0.028762858
569.12	0.13126	0.104957288	0.026302712
569.16	0.13111	0.104967434	0.026142566
569.2	0.12449	0.10497758	0.01951242
569.24	0.12699	0.104987726	0.022002274
569.28	0.12337	0.104997872	0.018372128
569.32	0.12256	0.105008018	0.017551982
569.36	0.12164	0.105018164	0.016621836
569.4	0.11685	0.10502831	0.01182169
569.44	0.11517	0.105038456	0.010131544
569.48	0.11482	0.105048602	0.009771398
569.52	0.12332	0.105058748	0.018261252
569.56	0.10917	0.105068894	0.004101106
569.6	0.11599	0.10507904	0.01091096
569.64	0.10927	0.105089186	0.004180814
569.68	0.11207	0.105099332	0.006970668
569.72	0.10642	0.105109478	0.001310522
569.76	0.10642	0.105119624	0.001300376
569.8	0.10637	0.10512977	0.00124023
569.84	0.11212	0.105139916	0.006980084
569.88	0.11217	0.105150062	0.007019938
569.92	0.10835	0.105160208	0.003189792
569.96	0.10535	0.105170354	0.000179646
570	0.10962	0.1051805	0.0044395
570.04	0.10912	0.105190646	0.003929354
570.08	0.10749	0.105200792	0.002289208
570.12	0.10183	0.105210938	-0.003380938
570.16	0.1027	0.105221084	-0.002521084
570.2	0.10637	0.10523123	0.00113877
570.24	0.10367	0.105241376	-0.001571376
570.28	0.10728	0.105251522	0.002028478
570.32	0.11105	0.105261668	0.005788332
570.36	0.111	0.105271814	0.005728186
570.4	0.10932	0.10528196	0.00403804
570.44	0.11762	0.105292106	0.012327894
570.48	0.10535	0.105302252	4.7748E-05
570.52	0.1083	0.105312398	0.002987602
570.56	0.1083	0.105322544	0.002977456
570.6	0.11034	0.10533269	0.00500731
570.64	0.11039	0.105342836	0.005047164
570.68	0.10637	0.105352982	0.001017018
570.72	0.10728	0.105363128	0.001916872
570.76	0.10362	0.105373274	-0.001753274
570.8	0.1081	0.10538342	0.00271658
570.84	0.11497	0.105393566	0.009576434
570.88	0.111	0.105403712	0.005596288
570.92	0.1111	0.105413858	0.005686142
570.96	0.11971	0.105424004	0.014285996
571	0.1109	0.10543415	0.00546585
571.04	0.11115	0.105444296	0.005705704
571.08	0.11309	0.105454442	0.007635558
571.12	0.11304	0.105464588	0.007575412
571.16	0.11024	0.105474734	0.004765266
571.2	0.10906	0.10548488	0.00357512
571.24	0.10932	0.105495026	0.003824974
571.28	0.12245	0.105505172	0.016944828
571.32	0.11635	0.105515318	0.010834682
571.36	0.11298	0.105525464	0.007454536
571.4	0.11589	0.10553561	0.01035439
571.44	0.11976	0.105545756	0.014214244
571.48	0.11955	0.105555902	0.013994098
571.52	0.11976	0.105566048	0.014193952
571.56	0.11971	0.105576194	0.014133806
571.6	0.11212	0.10558634	0.00653366
571.64	0.12144	0.105596486	0.015843514
571.68	0.11691	0.105606632	0.011303368
571.72	0.11502	0.105616778	0.009403222
571.76	0.11283	0.105626924	0.007203076
571.8	0.11894	0.10563707	0.01330293
571.84	0.11869	0.105647216	0.013042784
571.88	0.11604	0.105657362	0.010382638
571.92	0.12042	0.105667508	0.014752492
571.96	0.12062	0.105677654	0.014942346
572	0.11298	0.1056878	0.0072922
572.04	0.114	0.105697946	0.008302054
572.08	0.11416	0.105708092	0.008451908
572.12	0.11405	0.105718238	0.008331762
572.16	0.11207	0.105728384	0.006341616
572.2	0.11421	0.10573853	0.00847147
572.24	0.11207	0.105748676	0.006321324
572.28	0.11288	0.105758822	0.007121178
572.32	0.11691	0.105768968	0.011141032
572.36	0.11482	0.105779114	0.009040886
572.4	0.11482	0.10578926	0.00903074
572.44	0.10845	0.105799406	0.002650594
572.48	0.10754	0.105809552	0.001730448
572.52	0.10642	0.105819698	0.000600302
572.56	0.10464	0.105829844	-0.001189844
572.6	0.10525	0.10583999	-0.00058999
572.64	0.10082	0.105850136	-0.005030136
572.68	0.10749	0.105860282	0.001629718
572.72	0.10738	0.105870428	0.001509572
572.76	0.10642	0.105880574	0.000539426
572.8	0.10474	0.10589072	-0.00115072
572.84	0.10932	0.105900866	0.003419134
572.88	0.10158	0.105911012	-0.004331012
572.92	0.10469	0.105921158	-0.001231158
572.96	0.10942	0.105931304	0.003488696
573	0.10932	0.10594145	0.00337855
573.04	0.11018	0.105951596	0.004228404
573.08	0.10835	0.105961742	0.002388258
573.12	0.11691	0.105971888	0.010938112
573.16	0.11136	0.105982034	0.005377966
573.2	0.11115	0.10599218	0.00515782
573.24	0.10295	0.106002326	-0.003052326
573.28	0.10285	0.106012472	-0.003162472
573.32	0.10458	0.106022618	-0.001442618
573.36	0.11008	0.106032764	0.004047236
573.4	0.11003	0.10604291	0.00398709
573.44	0.1055	0.106053056	-0.000553056
573.48	0.11013	0.106063202	0.004066798
573.52	0.10922	0.106073348	0.003146652
573.56	0.1112	0.106083494	0.005116506
573.6	0.11141	0.10609364	0.00531636
573.64	0.11772	0.106103786	0.011616214
573.68	0.11034	0.106113932	0.004226068
573.72	0.11691	0.106124078	0.010785922
573.76	0.11222	0.106134224	0.006085776
573.8	0.11502	0.10614437	0.00887563
573.84	0.12164	0.106154516	0.015485484
573.88	0.12164	0.106164662	0.015475338
573.92	0.1196	0.106174808	0.013425192
573.96	0.12546	0.106184954	0.019275046
574	0.12724	0.1061951	0.0210449
574.04	0.1252	0.106205246	0.018994754
574.08	0.12648	0.106215392	0.020264608
574.12	0.12083	0.106225538	0.014604462
574.16	0.1303	0.106235684	0.024064316
574.2	0.12994	0.10624583	0.02369417
574.24	0.13243	0.106255976	0.026174024
574.28	0.14033	0.106266122	0.034063878
574.32	0.13386	0.106276268	0.027583732
574.36	0.14409	0.106286414	0.037803586
574.4	0.13345	0.10629656	0.02715344
574.44	0.1333	0.106306706	0.026993294
574.48	0.13299	0.106316852	0.026673148
574.52	0.13279	0.106326998	0.026463002
574.56	0.13605	0.106337144	0.029712856
574.6	0.13987	0.10634729	0.03352271
574.64	0.13396	0.106357436	0.027602564
574.68	0.13401	0.106367582	0.027642418
574.72	0.13605	0.106377728	0.029672272
574.76	0.13585	0.106387874	0.029462126
574.8	0.1276	0.10639802	0.02120198
574.84	0.14073	0.106408166	0.034321834
574.88	0.12912	0.106418312	0.022701688
574.92	0.13223	0.106428458	0.025801542
574.96	0.13503	0.106438604	0.028591396
575	0.13014	0.10644875	0.02369125
575.04	0.14099	0.106458896	0.034531104
575.08	0.14124	0.106469042	0.034770958
575.12	0.13742	0.106479188	0.030940812
575.16	0.14318	0.106489334	0.036690666
575.2	0.13223	0.10649948	0.02573052
575.24	0.13483	0.106509626	0.028320374
575.28	0.14333	0.106519772	0.036810228
575.32	0.14603	0.106529918	0.039500082
575.36	0.14613	0.106540064	0.039589936
575.4	0.14781	0.10655021	0.04125979
575.44	0.14893	0.106560356	0.042369644
575.48	0.147	0.106570502	0.040429498
575.52	0.14409	0.106580648	0.037509352
575.56	0.15921	0.106590794	0.052619206
575.6	0.15937	0.10660094	0.05276906
575.64	0.1614	0.106611086	0.054788914
575.68	0.1613	0.106621232	0.054678768
575.72	0.16303	0.106631378	0.056398622
575.76	0.1724	0.106641524	0.065758476
575.8	0.17622	0.10665167	0.06956833
575.84	0.16772	0.106661816	0.061058184
575.88	0.17627	0.106671962	0.069598038
575.92	0.18661	0.106682108	0.079927892
575.96	0.18645	0.106692254	0.079757746
576	0.18376	0.1067024	0.0770576
576.04	0.18768	0.106712546	0.080967454
576.08	0.18386	0.106722692	0.077137308
576.12	0.19236	0.106732838	0.085627162
576.16	0.18498	0.106742984	0.078237016
576.2	0.17347	0.10675313	0.06671687
576.24	0.17362	0.106763276	0.066856724
576.28	0.18569	0.106773422	0.078916578
576.32	0.17449	0.106783568	0.067706432
576.36	0.18009	0.106793714	0.073296286
576.4	0.18284	0.10680386	0.07603614
576.44	0.1781	0.106814006	0.071285994
576.48	0.17647	0.106824152	0.069645848
576.52	0.1696	0.106834298	0.062765702
576.56	0.16965	0.106844444	0.062805556
576.6	0.16507	0.10685459	0.05821541
576.64	0.15545	0.106864736	0.048585264
576.68	0.14908	0.106874882	0.042205118
576.72	0.15647	0.106885028	0.049584972
576.76	0.14526	0.106895174	0.038364826
576.8	0.14628	0.10690532	0.03937468
576.84	0.14618	0.106915466	0.039264534
576.88	0.13585	0.106925612	0.028924388
576.92	0.136	0.106935758	0.029064242
576.96	0.13203	0.106945904	0.025084096
577	0.12831	0.10695605	0.02135395
577.04	0.12541	0.106966196	0.018443804
577.08	0.1251	0.106976342	0.018123658
577.12	0.12531	0.106986488	0.018323512
577.16	0.11986	0.106996634	0.012863366
577.2	0.11039	0.10700678	0.00338322
577.24	0.11859	0.107016926	0.011573074
577.28	0.11125	0.107027072	0.004222928
577.32	0.10968	0.107037218	0.002642782
577.36	0.10845	0.107047364	0.001402636
577.4	0.11044	0.10705751	0.00338249
577.44	0.11018	0.107067656	0.003112344
577.48	0.10947	0.107077802	0.002392198
577.52	0.10565	0.107087948	-0.001437948
577.56	0.10626	0.107098094	-0.000838094
577.6	0.10479	0.10710824	-0.00231824
577.64	0.10749	0.107118386	0.000371614
577.68	0.10723	0.107128532	0.000101468
577.72	0.10733	0.107138678	0.000191322
577.76	0.10565	0.107148824	-0.001498824
577.8	0.10835	0.10715897	0.00119103
577.84	0.10464	0.107169116	-0.002529116
577.88	0.10906	0.107179262	0.001880738
577.92	0.1056	0.107189408	-0.001589408
577.96	0.10458	0.107199554	-0.002619554
578	0.1084	0.1072097	0.0011903
578.04	0.10861	0.107219846	0.001390154
578.08	0.10474	0.107229992	-0.002489992
578.12	0.10565	0.107240138	-0.001590138
578.16	0.10947	0.107250284	0.002219716
578.2	0.10565	0.10726043	-0.00161043
578.24	0.10458	0.107270576	-0.002690576
578.28	0.10856	0.107280722	0.001279278
578.32	0.10845	0.107290868	0.001159132
578.36	0.10382	0.107301014	-0.003481014
578.4	0.10443	0.10731116	-0.00288116
578.44	0.10066	0.107321306	-0.006661306
578.48	0.10927	0.107331452	0.001938548
578.52	0.10275	0.107341598	-0.004591598
578.56	0.10433	0.107351744	-0.003021744
578.6	0.10464	0.10736189	-0.00272189
578.64	0.10469	0.107372036	-0.002682036
578.68	0.10835	0.107382182	0.000967818
578.72	0.10397	0.107392328	-0.003422328
578.76	0.10295	0.107402474	-0.004452474
578.8	0.10275	0.10741262	-0.00466262
578.84	0.10494	0.107422766	-0.002482766
578.88	0.10102	0.107432912	-0.006412912
578.92	0.10071	0.107443058	-0.006733058
578.96	0.10749	0.107453204	3.6796E-05
579	0.11049	0.10746335	0.00302665
579.04	0.10626	0.107473496	-0.001213496
579.08	0.11278	0.107483642	0.005296358
579.12	0.11691	0.107493788	0.009416212
579.16	0.11222	0.107503934	0.004716066
579.2	0.11207	0.10751408	0.00455592
579.24	0.11512	0.107524226	0.007595774
579.28	0.11502	0.107534372	0.007485628
579.32	0.11701	0.107544518	0.009465482
579.36	0.11599	0.107554664	0.008435336
579.4	0.11691	0.10756481	0.00934519
579.44	0.11803	0.107574956	0.010455044
579.48	0.11803	0.107585102	0.010444898
579.52	0.11696	0.107595248	0.009364752
579.56	0.11497	0.107605394	0.007364606
579.6	0.12179	0.10761554	0.01417446
579.64	0.11594	0.107625686	0.008314314
579.68	0.12164	0.107635832	0.014004168
579.72	0.12332	0.107645978	0.015674022
579.76	0.11859	0.107656124	0.010933876
579.8	0.11899	0.10766627	0.01132373
579.84	0.1247	0.107676416	0.017023584
579.88	0.12734	0.107686562	0.019653438
579.92	0.12907	0.107696708	0.021373292
579.96	0.12429	0.107706854	0.016583146
580	0.12368	0.107717	0.015963
580.04	0.12337	0.107727146	0.015642854
580.08	0.12347	0.107737292	0.015732708
580.12	0.13004	0.107747438	0.022292562
580.16	0.12042	0.107757584	0.012662416
580.2	0.13671	0.10776773	0.02894227
580.24	0.11589	0.107777876	0.008112124
580.28	0.13024	0.107788022	0.022451978
580.32	0.12062	0.107798168	0.012821832
580.36	0.12841	0.107808314	0.020601686
580.4	0.12836	0.10781846	0.02054154
580.44	0.12704	0.107828606	0.019211394
580.48	0.12144	0.107838752	0.013601248
580.52	0.12933	0.107848898	0.021481102
580.56	0.1331	0.107859044	0.025240956
580.6	0.13198	0.10786919	0.02411081
580.64	0.13101	0.107879336	0.023130664
580.68	0.13065	0.107889482	0.022760518
580.72	0.13941	0.107899628	0.031510372
580.76	0.13854	0.107909774	0.030630226
580.8	0.1331	0.10791992	0.02518008
580.84	0.14806	0.107930066	0.040129934
580.88	0.13956	0.107940212	0.031619788
580.92	0.14328	0.107950358	0.035329642
580.96	0.14323	0.107960504	0.035269496
581	0.15081	0.10797065	0.04283935
581.04	0.15076	0.107980796	0.042779204
581.08	0.15086	0.107990942	0.042869058
581.12	0.15718	0.108001088	0.049178912
581.16	0.15855	0.108011234	0.050538766
581.2	0.16298	0.10802138	0.05495862
581.24	0.16059	0.108031526	0.052558474
581.28	0.16018	0.108041672	0.052138328
581.32	0.1641	0.108051818	0.056048182
581.36	0.16232	0.108061964	0.054258036
581.4	0.167	0.10807211	0.05892789
581.44	0.17454	0.108082256	0.066457744
581.48	0.17159	0.108092402	0.063497598
581.52	0.17622	0.108102548	0.068117452
581.56	0.17632	0.108112694	0.068207306
581.6	0.18264	0.10812284	0.07451716
581.64	0.17642	0.108132986	0.068287014
581.68	0.18177	0.108143132	0.073626868
581.72	0.18757	0.108153278	0.079416722
581.76	0.17892	0.108163424	0.070756576
581.8	0.17724	0.10817357	0.06906643
581.84	0.17688	0.108183716	0.068696284
581.88	0.17612	0.108193862	0.067926138
581.92	0.17174	0.108204008	0.063535992
581.96	0.16599	0.108214154	0.057775846
582	0.16492	0.1082243	0.0566957
582.04	0.1613	0.108234446	0.053065554
582.08	0.1527	0.108244592	0.044455408
582.12	0.15092	0.108254738	0.042665262
582.16	0.15051	0.108264884	0.042245116
582.2	0.15708	0.10827503	0.04880497
582.24	0.15265	0.108285176	0.044364824
582.28	0.14328	0.108295322	0.034984678
582.32	0.14323	0.108305468	0.034924532
582.36	0.1472	0.108315614	0.038884386
582.4	0.13305	0.10832576	0.02472424
582.44	0.13279	0.108335906	0.024454094
582.48	0.13488	0.108346052	0.026533948
582.52	0.13483	0.108356198	0.026473802
582.56	0.12846	0.108366344	0.020093656
582.6	0.13284	0.10837649	0.02446351
582.64	0.12342	0.108386636	0.015033364
582.68	0.12154	0.108396782	0.013143218
582.72	0.11879	0.108406928	0.010383072
582.76	0.11879	0.108417074	0.010372926
582.8	0.11859	0.10842722	0.01016278
582.84	0.11492	0.108437366	0.006482634
582.88	0.11482	0.108447512	0.006372488
582.92	0.11217	0.108457658	0.003712342
582.96	0.10637	0.108467804	-0.002097804
583	0.11039	0.10847795	0.00191205
583.04	0.11024	0.108488096	0.001751904
583.08	0.10448	0.108498242	-0.004018242
583.12	0.10632	0.108508388	-0.002188388
583.16	0.10749	0.108518534	-0.001028534
583.2	0.10744	0.10852868	-0.00108868
583.24	0.09995	0.108538826	-0.008588826
583.28	0.10362	0.108548972	-0.004928972
583.32	0.10367	0.108559118	-0.004889118
583.36	0.10367	0.108569264	-0.004899264
583.4	0.1056	0.10857941	-0.00297941
583.44	0.10555	0.108589556	-0.003039556
583.48	0.10392	0.108599702	-0.004679702
583.52	0.10204	0.108609848	-0.006569848
583.56	0.10484	0.108619994	-0.003779994
583.6	0.10744	0.10863014	-0.00119014
583.64	0.10738	0.108640286	-0.001260286
583.68	0.10168	0.108650432	-0.006970432
583.72	0.1054	0.108660578	-0.003260578
583.76	0.10219	0.108670724	-0.006480724
583.8	0.10754	0.10868087	-0.00114087
583.84	0.10652	0.108691016	-0.002171016
583.88	0.1113	0.108701162	0.002598838
583.92	0.11095	0.108711308	0.002238692
583.96	0.10952	0.108721454	0.000798546
584	0.11212	0.1087316	0.0033884
584.04	0.10927	0.108741746	0.000528254
584.08	0.11293	0.108751892	0.004178108
584.12	0.11731	0.108762038	0.008547962
584.16	0.11833	0.108772184	0.009557816
584.2	0.10922	0.10878233	0.00043767
584.24	0.10947	0.108792476	0.000677524
584.28	0.11971	0.108802622	0.010907378
584.32	0.11884	0.108812768	0.010027232
584.36	0.11314	0.108822914	0.004317086
584.4	0.11675	0.10883306	0.00791694
584.44	0.12342	0.108843206	0.014576794
584.48	0.12638	0.108853352	0.017526648
584.52	0.12632	0.108863498	0.017456502
584.56	0.12734	0.108873644	0.018466356
584.6	0.12846	0.10888379	0.01957621
584.64	0.13014	0.108893936	0.021246064
584.68	0.12149	0.108904082	0.012585918
584.72	0.13299	0.108914228	0.024075772
584.76	0.13747	0.108924374	0.028545626
584.8	0.13768	0.10893452	0.02874548
584.84	0.13493	0.108944666	0.025985334
584.88	0.13773	0.108954812	0.028775188
584.92	0.13758	0.108964958	0.028615042
584.96	0.13498	0.108975104	0.026004896
585	0.13411	0.10898525	0.02512475
585.04	0.13742	0.108995396	0.028424604
585.08	0.13305	0.109005542	0.024044458
585.12	0.13294	0.109015688	0.023924312
585.16	0.13203	0.109025834	0.023004166
585.2	0.12999	0.10903598	0.02095402
585.24	0.12434	0.109046126	0.015293874
585.28	0.12836	0.109056272	0.019303728
585.32	0.12912	0.109066418	0.020053582
585.36	0.12164	0.109076564	0.012563436
585.4	0.12144	0.10908671	0.01235329
585.44	0.11884	0.109096856	0.009743144
585.48	0.12897	0.109107002	0.019862998
585.52	0.12256	0.109117148	0.013442852
585.56	0.1168	0.109127294	0.007672706
585.6	0.11813	0.10913744	0.00899256
585.64	0.12439	0.109147586	0.015242414
585.68	0.12434	0.109157732	0.015182268
585.72	0.11991	0.109167878	0.010742122
585.76	0.11701	0.109178024	0.007831976
585.8	0.11003	0.10918817	0.00084183
585.84	0.11115	0.109198316	0.001951684
585.88	0.11787	0.109208462	0.008661538
585.92	0.11115	0.109218608	0.001931392
585.96	0.11777	0.109228754	0.008541246
586	0.11762	0.1092389	0.0083811
586.04	0.11701	0.109249046	0.007760954
586.08	0.11884	0.109259192	0.009580808
586.12	0.12632	0.109269338	0.017050662
586.16	0.12174	0.109279484	0.012460516
586.2	0.12144	0.10928963	0.01215037
586.24	0.12424	0.109299776	0.014940224
586.28	0.12449	0.109309922	0.015180078
586.32	0.13019	0.109320068	0.020869932
586.36	0.13299	0.109330214	0.023659786
586.4	0.13646	0.10934036	0.02711964
586.44	0.13666	0.109350506	0.027309494
586.48	0.1387	0.109360652	0.029339348
586.52	0.14598	0.109370798	0.036609202
586.56	0.14694	0.109380944	0.037559056
586.6	0.1471	0.10939109	0.03770891
586.64	0.13844	0.109401236	0.029038764
586.68	0.14338	0.109411382	0.033968618
586.72	0.15453	0.109421528	0.045108472
586.76	0.15071	0.109431674	0.041278326
586.8	0.1611	0.10944182	0.05165818
586.84	0.16202	0.109451966	0.052568034
586.88	0.16207	0.109462112	0.052607888
586.92	0.16202	0.109472258	0.052547742
586.96	0.1668	0.109482404	0.057317596
587	0.16792	0.10949255	0.05842745
587.04	0.16695	0.109502696	0.057447304
587.08	0.16884	0.109512842	0.059327158
587.12	0.17072	0.109522988	0.061197012
587.16	0.17062	0.109533134	0.061086866
587.2	0.16874	0.10954328	0.05919672
587.24	0.16792	0.109553426	0.058366574
587.28	0.16492	0.109563572	0.055356428
587.32	0.16772	0.109573718	0.058146282
587.36	0.16207	0.109583864	0.052486136
587.4	0.16863	0.10959401	0.05903599
587.44	0.17133	0.109604156	0.061725844
587.48	0.17138	0.109614302	0.061765698
587.52	0.15932	0.109624448	0.049695552
587.56	0.16212	0.109634594	0.052485406
587.6	0.16482	0.10964474	0.05517526
587.64	0.1526	0.109654886	0.042945114
587.68	0.14725	0.109665032	0.037584968
587.72	0.13961	0.109675178	0.029934822
587.76	0.13936	0.109685324	0.029674676
587.8	0.14623	0.10969547	0.03653453
587.84	0.13966	0.109705616	0.029954384
587.88	0.14053	0.109715762	0.030814238
587.92	0.13473	0.109725908	0.025004092
587.96	0.13187	0.109736054	0.022133946
588	0.13371	0.1097462	0.0239638
588.04	0.13411	0.109756346	0.024353654
588.08	0.12347	0.109766492	0.013703508
588.12	0.12531	0.109776638	0.015533362
588.16	0.11696	0.109786784	0.007173216
588.2	0.11971	0.10979693	0.00991307
588.24	0.11487	0.109807076	0.005062924
588.28	0.11385	0.109817222	0.004032778
588.32	0.1082	0.109827368	-0.001627368
588.36	0.1084	0.109837514	-0.001437514
588.4	0.10555	0.10984766	-0.00429766
588.44	0.11278	0.109857806	0.002922194
588.48	0.11197	0.109867952	0.002102048
588.52	0.10917	0.109878098	-0.000708098
588.56	0.11304	0.109888244	0.003151756
588.6	0.10372	0.10989839	-0.00617839
588.64	0.10382	0.109908536	-0.006088536
588.68	0.10173	0.109918682	-0.008188682
588.72	0.10845	0.109928828	-0.001478828
588.76	0.11762	0.109938974	0.007681026
588.8	0.11125	0.10994912	0.00130088
588.84	0.11467	0.109959266	0.004710734
588.88	0.10835	0.109969412	-0.001619412
588.92	0.11416	0.109979558	0.004180442
588.96	0.11411	0.109989704	0.004120296
589	0.11217	0.10999985	0.00217015
589.04	0.11685	0.110009996	0.006840004
589.08	0.11507	0.110020142	0.005049858
589.12	0.11436	0.110030288	0.004329712
589.16	0.12928	0.110040434	0.019239566
589.2	0.13325	0.11005058	0.02319942
589.24	0.13294	0.110060726	0.022879274
589.28	0.12077	0.110070872	0.010699128
589.32	0.13004	0.110081018	0.019958982
589.36	0.12719	0.110091164	0.017098836
589.4	0.13289	0.11010131	0.02278869
589.44	0.13106	0.110111456	0.020948544
589.48	0.13844	0.110121602	0.028318398
589.52	0.13829	0.110131748	0.028158252
589.56	0.13661	0.110141894	0.026468106
589.6	0.13691	0.11015204	0.02675796
589.64	0.14323	0.110162186	0.033067814
589.68	0.14333	0.110172332	0.033157668
589.72	0.15199	0.110182478	0.041807522
589.76	0.1473	0.110192624	0.037107376
589.8	0.15743	0.11020277	0.04722723
589.84	0.15743	0.110212916	0.047217084
589.88	0.15748	0.110223062	0.047256938
589.92	0.15361	0.110233208	0.043376792
589.96	0.15168	0.110243354	0.041436646
590	0.1499	0.1102535	0.0396465
590.04	0.15713	0.110263646	0.046866354
590.08	0.16191	0.110273792	0.051636208
590.12	0.16207	0.110283938	0.051786062
590.16	0.1556	0.110294084	0.045305916
590.2	0.15759	0.11030423	0.04728577
590.24	0.15733	0.110314376	0.047015624
590.28	0.15672	0.110324522	0.046395478
590.32	0.15	0.110334668	0.039665332
590.36	0.15	0.110344814	0.039655186
590.4	0.15244	0.11035496	0.04208504
590.44	0.1526	0.110365106	0.042234894
590.48	0.14603	0.110375252	0.035654748
590.52	0.15438	0.110385398	0.043994602
590.56	0.15092	0.110395544	0.040524456
590.6	0.15086	0.11040569	0.04045431
590.64	0.14806	0.110415836	0.037644164
590.68	0.14252	0.110425982	0.032094018
590.72	0.14221	0.110436128	0.031773872
590.76	0.14343	0.110446274	0.032983726
590.8	0.13951	0.11045642	0.02905358
590.84	0.13936	0.110466566	0.028893434
590.88	0.13671	0.110476712	0.026233288
590.92	0.13936	0.110486858	0.028873142
590.96	0.13854	0.110497004	0.028042996
591	0.13854	0.11050715	0.02803285
591.04	0.13579	0.110517296	0.025272704
591.08	0.12719	0.110527442	0.016662558
591.12	0.13305	0.110537588	0.022512412
591.16	0.1303	0.110547734	0.019752266
591.2	0.13758	0.11055788	0.02702212
591.24	0.12541	0.110568026	0.014841974
591.28	0.12831	0.110578172	0.017731828
591.32	0.12821	0.110588318	0.017621682
591.36	0.12251	0.110598464	0.011911536
591.4	0.12057	0.11060861	0.00996139
591.44	0.12067	0.110618756	0.010051244
591.48	0.12322	0.110628902	0.012591098
591.52	0.11691	0.110639048	0.006270952
591.56	0.11741	0.110649194	0.006760806
591.6	0.11787	0.11065934	0.00721066
591.64	0.11976	0.110669486	0.009090514
591.68	0.11965	0.110679632	0.008970368
591.72	0.12439	0.110689778	0.013700222
591.76	0.11599	0.110699924	0.005290076
591.8	0.12139	0.11071007	0.01067993
591.84	0.11584	0.110720216	0.005119784
591.88	0.11599	0.110730362	0.005259638
591.92	0.11696	0.110740508	0.006219492
591.96	0.11477	0.110750654	0.004019346
592	0.11105	0.1107608	0.0002892
592.04	0.11217	0.110770946	0.001399054
592.08	0.11614	0.110781092	0.005358908
592.12	0.11594	0.110791238	0.005148762
592.16	0.111	0.110801384	0.000198616
592.2	0.11125	0.11081153	0.00043847
592.24	0.10744	0.110821676	-0.003381676
592.28	0.10927	0.110831822	-0.001561822
592.32	0.11507	0.110841968	0.004228032
592.36	0.11426	0.110852114	0.003407886
592.4	0.11115	0.11086226	0.00028774
592.44	0.11808	0.110872406	0.007207594
592.48	0.11803	0.110882552	0.007147448
592.52	0.10906	0.110892698	-0.001832698
592.56	0.1111	0.110902844	0.000197156
592.6	0.10637	0.11091299	-0.00454299
592.64	0.11008	0.110923136	-0.000843136
592.68	0.11293	0.110933282	0.001996718
592.72	0.11283	0.110943428	0.001886572
592.76	0.11293	0.110953574	0.001976426
592.8	0.11309	0.11096372	0.00212628
592.84	0.10749	0.110973866	-0.003483866
592.88	0.10927	0.110984012	-0.001714012
592.92	0.11314	0.110994158	0.002145842
592.96	0.11044	0.111004304	-0.000564304
593	0.10922	0.11101445	-0.00179445
593.04	0.11589	0.111024596	0.004865404
593.08	0.11579	0.111034742	0.004755258
593.12	0.11599	0.111044888	0.004945112
593.16	0.11421	0.111055034	0.003154966
593.2	0.11579	0.11106518	0.00472482
593.24	0.11782	0.111075326	0.006744674
593.28	0.11762	0.111085472	0.006534528
593.32	0.12077	0.111095618	0.009674382
593.36	0.12057	0.111105764	0.009464236
593.4	0.11212	0.11111591	0.00100409
593.44	0.11996	0.111126056	0.008833944
593.48	0.11003	0.111136202	-0.001106202
593.52	0.111	0.111146348	-0.000146348
593.56	0.11797	0.111156494	0.006813506
593.6	0.11298	0.11116664	0.00181336
593.64	0.12337	0.111176786	0.012193214
593.68	0.12312	0.111186932	0.011933068
593.72	0.11864	0.111197078	0.007442922
593.76	0.11304	0.111207224	0.001832776
593.8	0.11604	0.11121737	0.00482263
593.84	0.11507	0.111227516	0.003842484
593.88	0.12067	0.111237662	0.009432338
593.92	0.11971	0.111247808	0.008462192
593.96	0.1195	0.111257954	0.008242046
594	0.12149	0.1112681	0.0102219
594.04	0.11467	0.111278246	0.003391754
594.08	0.11034	0.111288392	-0.000948392
594.12	0.1168	0.111298538	0.005501462
594.16	0.11685	0.111308684	0.005541316
594.2	0.11894	0.11131883	0.00762117
594.24	0.11859	0.111328976	0.007261024
594.28	0.11512	0.111339122	0.003780878
594.32	0.11497	0.111349268	0.003620732
594.36	0.11411	0.111359414	0.002750586
594.4	0.11217	0.11136956	0.00080044
594.44	0.1111	0.111379706	-0.000279706
594.48	0.1113	0.111389852	-8.9852E-05
594.52	0.10637	0.111399998	-0.005029998
594.56	0.10621	0.111410144	-0.005200144
594.6	0.10723	0.11142029	-0.00419029
594.64	0.10453	0.111430436	-0.006900436
594.68	0.10917	0.111440582	-0.002270582
594.72	0.10825	0.111450728	-0.003200728
594.76	0.10555	0.111460874	-0.005910874
594.8	0.11013	0.11147102	-0.00134102
594.84	0.11034	0.111481166	-0.001141166
594.88	0.10886	0.111491312	-0.002631312
594.92	0.11044	0.111501458	-0.001061458
594.96	0.11227	0.111511604	0.000758396
595	0.10723	0.11152175	-0.00429175
595.04	0.11319	0.111531896	0.001658104
595.08	0.11125	0.111542042	-0.000292042
595.12	0.1112	0.111552188	-0.000352188
595.16	0.1111	0.111562334	-0.000462334
595.2	0.11864	0.11157248	0.00706752
595.24	0.11125	0.111582626	-0.000332626
595.28	0.1082	0.111592772	-0.003392772
595.32	0.1111	0.111602918	-0.000502918
595.36	0.11604	0.111613064	0.004426936
595.4	0.10922	0.11162321	-0.00240321
595.44	0.10922	0.111633356	-0.002413356
595.48	0.11507	0.111643502	0.003426498
595.52	0.11395	0.111653648	0.002296352
595.56	0.11619	0.111663794	0.004526206
595.6	0.11874	0.11167394	0.00706606
595.64	0.11986	0.111684086	0.008175914
595.68	0.11207	0.111694232	0.000375768
595.72	0.11202	0.111704378	0.000315622
595.76	0.11685	0.111714524	0.005135476
595.8	0.12368	0.11172467	0.01195533
595.84	0.11604	0.111734816	0.004305184
595.88	0.12154	0.111744962	0.009795038
595.92	0.12261	0.111755108	0.010854892
595.96	0.12734	0.111765254	0.015574746
596	0.12632	0.1117754	0.0145446
596.04	0.12632	0.111785546	0.014534454
596.08	0.12057	0.111795692	0.008774308
596.12	0.12811	0.111805838	0.016304162
596.16	0.12607	0.111815984	0.014254016
596.2	0.13488	0.11182613	0.02305387
596.24	0.13305	0.111836276	0.021213724
596.28	0.13386	0.111846422	0.022013578
596.32	0.13391	0.111856568	0.022053432
596.36	0.12999	0.111866714	0.018123286
596.4	0.12368	0.11187686	0.01180314
596.44	0.13116	0.111887006	0.019272994
596.48	0.12841	0.111897152	0.016512848
596.52	0.13106	0.111907298	0.019152702
596.56	0.1331	0.111917444	0.021182556
596.6	0.1304	0.11192759	0.01847241
596.64	0.12902	0.111937736	0.017082264
596.68	0.13086	0.111947882	0.018912118
596.72	0.13579	0.111958028	0.023831972
596.76	0.13376	0.111968174	0.021791826
596.8	0.136	0.11197832	0.02402168
596.84	0.14048	0.111988466	0.028491534
596.88	0.13386	0.111998612	0.021861388
596.92	0.13381	0.112008758	0.021801242
596.96	0.13213	0.112018904	0.020111096
597	0.13936	0.11202905	0.02733095
597.04	0.13269	0.112039196	0.020650804
597.08	0.12795	0.112049342	0.015900658
597.12	0.13936	0.112059488	0.027300512
597.16	0.13574	0.112069634	0.023670366
597.2	0.13574	0.11207978	0.02366022
597.24	0.12739	0.112089926	0.015300074
597.28	0.1332	0.112100072	0.021099928
597.32	0.12856	0.112110218	0.016449782
597.36	0.13086	0.112120364	0.018739636
597.4	0.13208	0.11213051	0.01994949
597.44	0.13289	0.112140656	0.020749344
597.48	0.128	0.112150802	0.015849198
597.52	0.12826	0.112160948	0.016099052
597.56	0.13559	0.112171094	0.023418906
597.6	0.12999	0.11218124	0.01780876
597.64	0.1304	0.112191386	0.018208614
597.68	0.12454	0.112201532	0.012338468
597.72	0.13294	0.112211678	0.020728322
597.76	0.12546	0.112221824	0.013238176
597.8	0.1252	0.11223197	0.01296803
597.84	0.12836	0.112242116	0.016117884
597.88	0.1361	0.112252262	0.023847738
597.92	0.12363	0.112262408	0.011367592
597.96	0.12719	0.112272554	0.014917446
598	0.12271	0.1122827	0.0104273
598.04	0.12551	0.112292846	0.013217154
598.08	0.12526	0.112302992	0.012957008
598.12	0.12179	0.112313138	0.009476862
598.16	0.12918	0.112323284	0.016856716
598.2	0.12714	0.11233343	0.01480657
598.24	0.12907	0.112343576	0.016726424
598.28	0.12597	0.112353722	0.013616278
598.32	0.12938	0.112363868	0.017016132
598.36	0.12632	0.112374014	0.013945986
598.4	0.12612	0.11238416	0.01373584
598.44	0.12918	0.112394306	0.016785694
598.48	0.12454	0.112404452	0.012135548
598.52	0.12841	0.112414598	0.015995402
598.56	0.1252	0.112424744	0.012775256
598.6	0.13101	0.11243489	0.01857511
598.64	0.12638	0.112445036	0.013934964
598.68	0.12638	0.112455182	0.013924818
598.72	0.12811	0.112465328	0.015644672
598.76	0.12536	0.112475474	0.012884526
598.8	0.12526	0.11248562	0.01277438
598.84	0.13106	0.112495766	0.018564234
598.88	0.12261	0.112505912	0.010104088
598.92	0.12734	0.112516058	0.014823942
598.96	0.11899	0.112526204	0.006463796
599	0.11879	0.11253635	0.00625365
599.04	0.12363	0.112546496	0.011083504
599.08	0.12174	0.112556642	0.009183358
599.12	0.11787	0.112566788	0.005303212
599.16	0.1194	0.112576934	0.006823066
599.2	0.12816	0.11258708	0.01557292
599.24	0.1224	0.112597226	0.009802774
599.28	0.12266	0.112607372	0.010052628
599.32	0.11497	0.112617518	0.002352482
599.36	0.12444	0.112627664	0.011812336
599.4	0.12261	0.11263781	0.00997219
599.44	0.11421	0.112647956	0.001562044
599.48	0.11482	0.112658102	0.002161898
599.52	0.11497	0.112668248	0.002301752
599.56	0.11497	0.112678394	0.002291606
599.6	0.11217	0.11268854	-0.00051854
599.64	0.11385	0.112698686	0.001151314
599.68	0.11217	0.112708832	-0.000538832
599.72	0.11487	0.112718978	0.002151022
599.76	0.111	0.112729124	-0.001729124
599.8	0.1084	0.11273927	-0.00433927
599.84	0.1084	0.112749416	-0.004349416
599.88	0.1082	0.112759562	-0.004559562
599.92	0.11034	0.112769708	-0.002429708
599.96	0.11049	0.112779854	-0.002289854
600	0.11523	0.11279	0.00244
600.04	0.11044	0.112800146	-0.002360146
600.08	0.1084	0.112810292	-0.004410292
600.12	0.11487	0.112820438	0.002049562
600.16	0.11497	0.112830584	0.002139416
600.2	0.11024	0.11284073	-0.00260073
600.24	0.11487	0.112850876	0.002019124
600.28	0.11507	0.112861022	0.002208978
600.32	0.10749	0.112871168	-0.005381168
600.36	0.1085	0.112881314	-0.004381314
600.4	0.10856	0.11289146	-0.00433146
600.44	0.1085	0.112901606	-0.004401606
600.48	0.10835	0.112911752	-0.004561752
600.52	0.1085	0.112921898	-0.004421898
600.56	0.10922	0.112932044	-0.003712044
600.6	0.1082	0.11294219	-0.00474219
600.64	0.10937	0.112952336	-0.003582336
600.68	0.10642	0.112962482	-0.006542482
600.72	0.10749	0.112972628	-0.005482628
600.76	0.10764	0.112982774	-0.005342774
600.8	0.10738	0.11299292	-0.00561292
600.84	0.11039	0.113003066	-0.002613066
600.88	0.10845	0.113013212	-0.004563212
600.92	0.10525	0.113023358	-0.007773358
600.96	0.1028	0.113033504	-0.010233504
601	0.10932	0.11304365	-0.00372365
601.04	0.10922	0.113053796	-0.003833796
601.08	0.10932	0.113063942	-0.003743942
601.12	0.10738	0.113074088	-0.005694088
601.16	0.1083	0.113084234	-0.004784234
601.2	0.11024	0.11309438	-0.00285438
601.24	0.09802	0.113104526	-0.015084526
601.28	0.10744	0.113114672	-0.005674672
601.32	0.10922	0.113124818	-0.003904818
601.36	0.10922	0.113134964	-0.003914964
601.4	0.10438	0.11314511	-0.00876511
601.44	0.1029	0.113155256	-0.010255256
601.48	0.1028	0.113165402	-0.010365402
601.52	0.10835	0.113175548	-0.004825548
601.56	0.11059	0.113185694	-0.002595694
601.6	0.11013	0.11319584	-0.00306584
601.64	0.11044	0.113205986	-0.002765986
601.68	0.10932	0.113216132	-0.003896132
601.72	0.10886	0.113226278	-0.004366278
601.76	0.10616	0.113236424	-0.007076424
601.8	0.10998	0.11324657	-0.00326657
601.84	0.10738	0.113256716	-0.005876716
601.88	0.1111	0.113266862	-0.002166862
601.92	0.1112	0.113277008	-0.002077008
601.96	0.11792	0.113287154	0.004632846
602	0.11212	0.1132973	-0.0011773
602.04	0.10922	0.113307446	-0.004087446
602.08	0.11411	0.113317592	0.000792408
602.12	0.10906	0.113327738	-0.004267738
602.16	0.11222	0.113337884	-0.001117884
602.2	0.10927	0.11334803	-0.00407803
602.24	0.10901	0.113358176	-0.004348176
602.28	0.1111	0.113368322	-0.002268322
602.32	0.11105	0.113378468	-0.002328468
602.36	0.11105	0.113388614	-0.002338614
602.4	0.10535	0.11339876	-0.00804876
602.44	0.10932	0.113408906	-0.004088906
602.48	0.11492	0.113419052	0.001500948
602.52	0.11502	0.113429198	0.001590802
602.56	0.10576	0.113439344	-0.007679344
602.6	0.11217	0.11344949	-0.00127949
602.64	0.10886	0.113459636	-0.004599636
602.68	0.11232	0.113469782	-0.001149782
602.72	0.11298	0.113479928	-0.000499928
602.76	0.11105	0.113490074	-0.002440074
602.8	0.11095	0.11350022	-0.00255022
602.84	0.10835	0.113510366	-0.005160366
602.88	0.10937	0.113520512	-0.004150512
602.92	0.11105	0.113530658	-0.002480658
602.96	0.10718	0.113540804	-0.006360804
603	0.11115	0.11355095	-0.00240095
603.04	0.10927	0.113561096	-0.004291096
603.08	0.11792	0.113571242	0.004348758
603.12	0.11787	0.113581388	0.004288612
603.16	0.1055	0.113591534	-0.008091534
603.2	0.11416	0.11360168	0.00055832
603.24	0.114	0.113611826	0.000388174
603.28	0.11095	0.113621972	-0.002671972
603.32	0.10754	0.113632118	-0.006092118
603.36	0.11095	0.113642264	-0.002692264
603.4	0.11125	0.11365241	-0.00240241
603.44	0.1112	0.113662556	-0.002462556
603.48	0.10713	0.113672702	-0.006542702
603.52	0.11125	0.113682848	-0.002432848
603.56	0.11212	0.113692994	-0.001572994
603.6	0.11054	0.11370314	-0.00316314
603.64	0.11202	0.113713286	-0.001693286
603.68	0.11008	0.113723432	-0.003643432
603.72	0.11044	0.113733578	-0.003293578
603.76	0.1082	0.113743724	-0.005543724
603.8	0.10952	0.11375387	-0.00423387
603.84	0.11614	0.113764016	0.002375984
603.88	0.11217	0.113774162	-0.001604162
603.92	0.1111	0.113784308	-0.002684308
603.96	0.10718	0.113794454	-0.006614454
604	0.10718	0.1138046	-0.0066246
604.04	0.10443	0.113814746	-0.009384746
604.08	0.11497	0.113824892	0.001145108
604.12	0.114	0.113835038	0.000164962
604.16	0.11421	0.113845184	0.000364816
604.2	0.1113	0.11385533	-0.00255533
604.24	0.11757	0.113865476	0.003704524
604.28	0.11792	0.113875622	0.004044378
604.32	0.11584	0.113885768	0.001954232
604.36	0.11309	0.113895914	-0.000805914
604.4	0.11589	0.11390606	0.00198394
604.44	0.11034	0.113916206	-0.003576206
604.48	0.11701	0.113926352	0.003083648
604.52	0.11614	0.113936498	0.002203502
604.56	0.11064	0.113946644	-0.003306644
604.6	0.11039	0.11395679	-0.00356679
604.64	0.10759	0.113966936	-0.006376936
604.68	0.11314	0.113977082	-0.000837082
604.72	0.11202	0.113987228	-0.001967228
604.76	0.11202	0.113997374	-0.001977374
604.8	0.11304	0.11400752	-0.00096752
604.84	0.11288	0.114017666	-0.001137666
604.88	0.11293	0.114027812	-0.001097812
604.92	0.10733	0.114037958	-0.006707958
604.96	0.10458	0.114048104	-0.009468104
605	0.11772	0.11405825	0.00366175
605.04	0.1112	0.114068396	-0.002868396
605.08	0.10733	0.114078542	-0.006748542
605.12	0.11039	0.114088688	-0.003698688
605.16	0.11217	0.114098834	-0.001928834
605.2	0.11232	0.11410898	-0.00178898
605.24	0.10464	0.114119126	-0.009479126
605.28	0.1113	0.114129272	-0.002829272
605.32	0.1084	0.114139418	-0.005739418
605.36	0.1055	0.114149564	-0.008649564
605.4	0.10744	0.11415971	-0.00671971
605.44	0.10642	0.114169856	-0.007749856
605.48	0.10642	0.114180002	-0.007760002
605.52	0.10927	0.114190148	-0.004920148
605.56	0.11034	0.114200294	-0.003860294
605.6	0.10749	0.11421044	-0.00672044
605.64	0.11136	0.114220586	-0.002860586
605.68	0.10754	0.114230732	-0.006690732
605.72	0.1083	0.114240878	-0.005940878
605.76	0.10861	0.114251024	-0.005641024
605.8	0.11599	0.11426117	0.00172883
605.84	0.11416	0.114271316	-0.000111316
605.88	0.11105	0.114281462	-0.003231462
605.92	0.11288	0.114291608	-0.001411608
605.96	0.11609	0.114301754	0.001788246
606	0.10733	0.1143119	-0.0069819
606.04	0.11212	0.114322046	-0.002202046
606.08	0.11217	0.114332192	-0.002162192
606.12	0.10932	0.114342338	-0.005022338
606.16	0.10947	0.114352484	-0.004882484
606.2	0.10937	0.11436263	-0.00499263
606.24	0.10774	0.114372776	-0.006632776
606.28	0.11421	0.114382922	-0.000172922
606.32	0.11024	0.114393068	-0.004153068
606.36	0.11044	0.114403214	-0.003963214
606.4	0.11594	0.11441336	0.00152664
606.44	0.10835	0.114423506	-0.006073506
606.48	0.11609	0.114433652	0.001656348
606.52	0.11614	0.114443798	0.001696202
606.56	0.11227	0.114453944	-0.002183944
606.6	0.11685	0.11446409	0.00238591
606.64	0.11665	0.114474236	0.002175764
606.68	0.11971	0.114484382	0.005225618
606.72	0.12159	0.114494528	0.007095472
606.76	0.12245	0.114504674	0.007945326
606.8	0.11589	0.11451482	0.00137518
606.84	0.12072	0.114524966	0.006195034
606.88	0.12133	0.114535112	0.006794888
606.92	0.11864	0.114545258	0.004094742
606.96	0.11879	0.114555404	0.004234596
607	0.1168	0.11456555	0.00223445
607.04	0.12531	0.114575696	0.010734304
607.08	0.12419	0.114585842	0.009604158
607.12	0.12251	0.114595988	0.007914012
607.16	0.11696	0.114606134	0.002353866
607.2	0.12352	0.11461628	0.00890372
607.24	0.12342	0.114626426	0.008793574
607.28	0.12515	0.114636572	0.010513428
607.32	0.12154	0.114646718	0.006893282
607.36	0.11752	0.114656864	0.002863136
607.4	0.12454	0.11466701	0.00987299
607.44	0.11477	0.114677156	9.2844E-05
607.48	0.12245	0.114687302	0.007762698
607.52	0.12439	0.114697448	0.009692552
607.56	0.12449	0.114707594	0.009782406
607.6	0.12429	0.11471774	0.00957226
607.64	0.12632	0.114727886	0.011592114
607.68	0.12189	0.114738032	0.007151968
607.72	0.11864	0.114748178	0.003891822
607.76	0.11792	0.114758324	0.003161676
607.8	0.11405	0.11476847	-0.00071847
607.84	0.11395	0.114778616	-0.000828616
607.88	0.12149	0.114788762	0.006701238
607.92	0.11691	0.114798908	0.002111092
607.96	0.1196	0.114809054	0.004790946
608	0.12006	0.1148192	0.0052408
608.04	0.11685	0.114829346	0.002020654
608.08	0.12088	0.114839492	0.006040508
608.12	0.12062	0.114849638	0.005770362
608.16	0.11792	0.114859784	0.003060216
608.2	0.11594	0.11486993	0.00107007
608.24	0.11482	0.114880076	-6.0076E-05
608.28	0.11726	0.114890222	0.002369778
608.32	0.11416	0.114900368	-0.000740368
608.36	0.11864	0.114910514	0.003729486
608.4	0.11792	0.11492066	0.00299934
608.44	0.11752	0.114930806	0.002589194
608.48	0.11701	0.114940952	0.002069048
608.52	0.1139	0.114951098	-0.001051098
608.56	0.11024	0.114961244	-0.004721244
608.6	0.111	0.11497139	-0.00397139
608.64	0.11405	0.114981536	-0.000931536
608.68	0.11492	0.114991682	-7.1682E-05
608.72	0.11487	0.115001828	-0.000131828
608.76	0.11619	0.115011974	0.001178026
608.8	0.111	0.11502212	-0.00402212
608.84	0.10922	0.115032266	-0.005812266
608.88	0.11477	0.115042412	-0.000272412
608.92	0.11472	0.115052558	-0.000332558
608.96	0.11018	0.115062704	-0.004882704
609	0.10993	0.11507285	-0.00514285
609.04	0.11411	0.115082996	-0.000972996
609.08	0.12719	0.115093142	0.012096858
609.12	0.11461	0.115103288	-0.000493288
609.16	0.11405	0.115113434	-0.001063434
609.2	0.1168	0.11512358	0.00167642
609.24	0.11024	0.115133726	-0.004893726
609.28	0.11497	0.115143872	-0.000173872
609.32	0.11492	0.115154018	-0.000234018
609.36	0.11298	0.115164164	-0.002184164
609.4	0.11232	0.11517431	-0.00285431
609.44	0.11314	0.115184456	-0.002044456
609.48	0.1084	0.115194602	-0.006794602
609.52	0.11115	0.115204748	-0.004054748
609.56	0.10703	0.115214894	-0.008184894
609.6	0.10728	0.11522504	-0.00794504
609.64	0.11512	0.115235186	-0.000115186
609.68	0.11665	0.115245332	0.001404668
609.72	0.11624	0.115255478	0.000984522
609.76	0.11298	0.115265624	-0.002285624
609.8	0.10642	0.11527577	-0.00885577
609.84	0.114	0.115285916	-0.001285916
609.88	0.1168	0.115296062	0.001503938
609.92	0.11691	0.115306208	0.001603792
609.96	0.11599	0.115316354	0.000673646
610	0.11874	0.1153265	0.0034135
610.04	0.11594	0.115336646	0.000603354
610.08	0.11298	0.115346792	-0.002366792
610.12	0.10912	0.115356938	-0.006236938
610.16	0.10728	0.115367084	-0.008087084
610.2	0.10733	0.11537723	-0.00804723
610.24	0.10932	0.115387376	-0.006067376
610.28	0.11298	0.115397522	-0.002417522
610.32	0.111	0.115407668	-0.004407668
610.36	0.11492	0.115417814	-0.000497814
610.4	0.11339	0.11542796	-0.00203796
610.44	0.11227	0.115438106	-0.003168106
610.48	0.11212	0.115448252	-0.003328252
610.52	0.11696	0.115458398	0.001501602
610.56	0.11777	0.115468544	0.002301456
610.6	0.12154	0.11547869	0.00606131
610.64	0.11461	0.115488836	-0.000878836
610.68	0.12077	0.115498982	0.005271018
610.72	0.1251	0.115509128	0.009590872
610.76	0.12352	0.115519274	0.008000726
610.8	0.12363	0.11552942	0.00810058
610.84	0.11991	0.115539566	0.004370434
610.88	0.12846	0.115549712	0.012910288
610.92	0.13024	0.115559858	0.014680142
610.96	0.13585	0.115570004	0.020279996
611	0.12918	0.11558015	0.01359985
611.04	0.13763	0.115590296	0.022039704
611.08	0.13753	0.115600442	0.021929558
611.12	0.13747	0.115610588	0.021859412
611.16	0.14033	0.115620734	0.024709266
611.2	0.15092	0.11563088	0.03528912
611.24	0.1527	0.115641026	0.037058974
611.28	0.14969	0.115651172	0.034038828
611.32	0.16196	0.115661318	0.046298682
611.36	0.1528	0.115671464	0.037128536
611.4	0.15255	0.11568161	0.03686839
611.44	0.16023	0.115691756	0.044538244
611.48	0.17057	0.115701902	0.054868098
611.52	0.16868	0.115712048	0.052967952
611.56	0.16955	0.115722194	0.053827806
611.6	0.17067	0.11573234	0.05493766
611.64	0.1781	0.115742486	0.062357514
611.68	0.17795	0.115752632	0.062197368
611.72	0.16319	0.115762778	0.047427222
611.76	0.16904	0.115772924	0.053267076
611.8	0.17072	0.11578307	0.05493693
611.84	0.17535	0.115793216	0.059556784
611.88	0.17057	0.115803362	0.054766638
611.92	0.16792	0.115813508	0.052106492
611.96	0.16777	0.115823654	0.051946346
612	0.17128	0.1158338	0.0554462
612.04	0.16395	0.115843946	0.048106054
612.08	0.16212	0.115854092	0.046265908
612.12	0.15947	0.115864238	0.043605762
612.16	0.15647	0.115874384	0.040595616
612.2	0.16135	0.11588453	0.04546547
612.24	0.14898	0.115894676	0.033085324
612.28	0.14913	0.115904822	0.033225178
612.32	0.14613	0.115914968	0.030215032
612.36	0.14246	0.115925114	0.026534886
612.4	0.13671	0.11593526	0.02077474
612.44	0.14129	0.115945406	0.025344594
612.48	0.12938	0.115955552	0.013424448
612.52	0.12831	0.115965698	0.012344302
612.56	0.12821	0.115975844	0.012234156
612.6	0.12897	0.11598599	0.01298401
612.64	0.12627	0.115996136	0.010273864
612.68	0.1252	0.116006282	0.009193718
612.72	0.12444	0.116016428	0.008423572
612.76	0.11976	0.116026574	0.003733426
612.8	0.11792	0.11603672	0.00188328
612.84	0.11777	0.116046866	0.001723134
612.88	0.1168	0.116057012	0.000742988
612.92	0.12169	0.116067158	0.005622842
612.96	0.11064	0.116077304	-0.005437304
613	0.11609	0.11608745	2.55E-06
613.04	0.11991	0.116097596	0.003812404
613.08	0.11502	0.116107742	-0.001087742
613.12	0.11853	0.116117888	0.002412112
613.16	0.11874	0.116128034	0.002611966
613.2	0.1195	0.11613818	0.00336182
613.24	0.11599	0.116148326	-0.000158326
613.28	0.11859	0.116158472	0.002431528
613.32	0.11792	0.116168618	0.001751382
613.36	0.11772	0.116178764	0.001541236
613.4	0.11675	0.11618891	0.00056109
613.44	0.1167	0.116199056	0.000500944
613.48	0.11512	0.116209202	-0.001089202
613.52	0.11981	0.116219348	0.003590652
613.56	0.11614	0.116229494	-8.9494E-05
613.6	0.11955	0.11623964	0.00331036
613.64	0.11767	0.116249786	0.001420214
613.68	0.11528	0.116259932	-0.000979932
613.72	0.11981	0.116270078	0.003539922
613.76	0.1196	0.116280224	0.003319776
613.8	0.11879	0.11629037	0.00249963
613.84	0.11685	0.116300516	0.000549484
613.88	0.12057	0.116310662	0.004259338
613.92	0.11864	0.116320808	0.002319192
613.96	0.12154	0.116330954	0.005209046
614	0.11823	0.1163411	0.0018889
614.04	0.11797	0.116351246	0.001618754
614.08	0.11736	0.116361392	0.000998608
614.12	0.11675	0.116371538	0.000378462
614.16	0.11803	0.116381684	0.001648316
614.2	0.114	0.11639183	-0.00239183
614.24	0.11492	0.116401976	-0.001481976
614.28	0.12245	0.116412122	0.006037878
614.32	0.12261	0.116422268	0.006187732
614.36	0.11777	0.116432414	0.001337586
614.4	0.11197	0.11644256	-0.00447256
614.44	0.11594	0.116452706	-0.000512706
614.48	0.11813	0.116462852	0.001667148
614.52	0.11497	0.116472998	-0.001502998
614.56	0.11487	0.116483144	-0.001613144
614.6	0.11884	0.11649329	0.00234671
614.64	0.11879	0.116503436	0.002286564
614.68	0.11782	0.116513582	0.001306418
614.72	0.11472	0.116523728	-0.001803728
614.76	0.11701	0.116533874	0.000476126
614.8	0.111	0.11654402	-0.00554402
614.84	0.11497	0.116554166	-0.001584166
614.88	0.11288	0.116564312	-0.003684312
614.92	0.11304	0.116574458	-0.003534458
614.96	0.11787	0.116584604	0.001285396
615	0.11421	0.11659475	-0.00238475
615.04	0.11029	0.116604896	-0.006314896
615.08	0.12256	0.116615042	0.005944958
615.12	0.11523	0.116625188	-0.001395188
615.16	0.11517	0.116635334	-0.001465334
615.2	0.11497	0.11664548	-0.00167548
615.24	0.11497	0.116655626	-0.001685626
615.28	0.11502	0.116665772	-0.001645772
615.32	0.11792	0.116675918	0.001244082
615.36	0.12083	0.116686064	0.004143936
615.4	0.11706	0.11669621	0.00036379
615.44	0.12077	0.116706356	0.004063644
615.48	0.11512	0.116716502	-0.001596502
615.52	0.11502	0.116726648	-0.001706648
615.56	0.12373	0.116736794	0.006993206
615.6	0.1196	0.11674694	0.00285306
615.64	0.11777	0.116757086	0.001012914
615.68	0.11293	0.116767232	-0.003837232
615.72	0.11609	0.116777378	-0.000687378
615.76	0.11034	0.116787524	-0.006447524
615.8	0.11018	0.11679767	-0.00661767
615.84	0.11869	0.116807816	0.001882184
615.88	0.11018	0.116817962	-0.006637962
615.92	0.11304	0.116828108	-0.003788108
615.96	0.1196	0.116838254	0.002761746
616	0.11869	0.1168484	0.0018416
616.04	0.12057	0.116858546	0.003711454
616.08	0.11492	0.116868692	-0.001948692
616.12	0.11497	0.116878838	-0.001908838
616.16	0.11293	0.116888984	-0.003958984
616.2	0.11701	0.11689913	0.00011087
616.24	0.12235	0.116909276	0.005440724
616.28	0.12057	0.116919422	0.003650578
616.32	0.12144	0.116929568	0.004510432
616.36	0.11981	0.116939714	0.002870286
616.4	0.11991	0.11694986	0.00296014
616.44	0.11986	0.116960006	0.002899994
616.48	0.11207	0.116970152	-0.004900152
616.52	0.12266	0.116980298	0.005679702
616.56	0.11202	0.116990444	-0.004970444
616.6	0.11502	0.11700059	-0.00198059
616.64	0.11991	0.117010736	0.002899264
616.68	0.11986	0.117020882	0.002839118
616.72	0.1247	0.117031028	0.007668972
616.76	0.1196	0.117041174	0.002558826
616.8	0.11691	0.11705132	-0.00014132
616.84	0.11589	0.117061466	-0.001171466
616.88	0.11787	0.117071612	0.000798388
616.92	0.11976	0.117081758	0.002678242
616.96	0.12724	0.117091904	0.010148096
617	0.12714	0.11710205	0.01003795
617.04	0.11986	0.117112196	0.002747804
617.08	0.12531	0.117122342	0.008187658
617.12	0.1252	0.117132488	0.008067512
617.16	0.11691	0.117142634	-0.000232634
617.2	0.12139	0.11715278	0.00423722
617.24	0.11777	0.117162926	0.000607074
617.28	0.11803	0.117173072	0.000856928
617.32	0.12174	0.117183218	0.004556782
617.36	0.1112	0.117193364	-0.005993364
617.4	0.12515	0.11720351	0.00794649
617.44	0.13004	0.117213656	0.012826344
617.48	0.12251	0.117223802	0.005286198
617.52	0.11981	0.117233948	0.002576052
617.56	0.11981	0.117244094	0.002565906
617.6	0.12062	0.11725424	0.00336576
617.64	0.11981	0.117264386	0.002545614
617.68	0.12719	0.117274532	0.009915468
617.72	0.12928	0.117284678	0.011995322
617.76	0.12627	0.117294824	0.008975176
617.8	0.12067	0.11730497	0.00336503
617.84	0.12531	0.117315116	0.007994884
617.88	0.12526	0.117325262	0.007934738
617.92	0.12541	0.117335408	0.008074592
617.96	0.12454	0.117345554	0.007194446
618	0.12724	0.1173557	0.0098843
618.04	0.12826	0.117365846	0.010894154
618.08	0.12709	0.117375992	0.009714008
618.12	0.12449	0.117386138	0.007103862
618.16	0.12424	0.117396284	0.006843716
618.2	0.12434	0.11740643	0.00693357
618.24	0.11853	0.117416576	0.001113424
618.28	0.12526	0.117426722	0.007833278
618.32	0.12999	0.117436868	0.012553132
618.36	0.128	0.117447014	0.010552986
618.4	0.12424	0.11745716	0.00678284
618.44	0.12663	0.117467306	0.009162694
618.48	0.12622	0.117477452	0.008742548
618.52	0.12067	0.117487598	0.003182402
618.56	0.12347	0.117497744	0.005972256
618.6	0.12352	0.11750789	0.00601211
618.64	0.12383	0.117518036	0.006311964
618.68	0.12531	0.117528182	0.007781818
618.72	0.11797	0.117538328	0.000431672
618.76	0.11767	0.117548474	0.000121526
618.8	0.11797	0.11755862	0.00041138
618.84	0.12144	0.117568766	0.003871234
618.88	0.11787	0.117578912	0.000291088
618.92	0.11609	0.117589058	-0.001499058
618.96	0.11691	0.117599204	-0.000689204
619	0.12057	0.11760935	0.00296065
619.04	0.12062	0.117619496	0.003000504
619.08	0.11996	0.117629642	0.002330358
619.12	0.11874	0.117639788	0.001100212
619.16	0.11604	0.117649934	-0.001609934
619.2	0.11772	0.11766008	5.992E-05
619.24	0.12531	0.117670226	0.007639774
619.28	0.11874	0.117680372	0.001059628
619.32	0.11797	0.117690518	0.000279482
619.36	0.11772	0.117700664	1.9336E-05
619.4	0.12144	0.11771081	0.00372919
619.44	0.11787	0.117720956	0.000149044
619.48	0.12062	0.117731102	0.002888898
619.52	0.12526	0.117741248	0.007518752
619.56	0.12235	0.117751394	0.004598606
619.6	0.11298	0.11776154	-0.00478154
619.64	0.11314	0.117771686	-0.004631686
619.68	0.11874	0.117781832	0.000958168
619.72	0.11772	0.117791978	-7.1978E-05
619.76	0.12128	0.117802124	0.003477876
619.8	0.12144	0.11781227	0.00362773
619.84	0.12062	0.117822416	0.002797584
619.88	0.12266	0.117832562	0.004827438
619.92	0.11604	0.117842708	-0.001802708
619.96	0.11599	0.117852854	-0.001862854
620	0.11803	0.117863	0.000167
620.04	0.11976	0.117873146	0.001886854
620.08	0.12062	0.117883292	0.002736708
620.12	0.12332	0.117893438	0.005426562
620.16	0.12342	0.117903584	0.005516416
620.2	0.12174	0.11791373	0.00382627
620.24	0.12149	0.117923876	0.003566124
620.28	0.12139	0.117934022	0.003455978
620.32	0.12643	0.117944168	0.008485832
620.36	0.11757	0.117954314	-0.000384314
620.4	0.12918	0.11796446	0.01121554
620.44	0.11411	0.117974606	-0.003864606
620.48	0.12724	0.117984752	0.009255248
620.52	0.1276	0.117994898	0.009605102
620.56	0.12174	0.118005044	0.003734956
620.6	0.13208	0.11801519	0.01406481
620.64	0.12638	0.118025336	0.008354664
620.68	0.12256	0.118035482	0.004524518
620.72	0.12541	0.118045628	0.007364372
620.76	0.12159	0.118055774	0.003534226
620.8	0.13376	0.11806592	0.01569408
620.84	0.13386	0.118076066	0.015783934
620.88	0.12907	0.118086212	0.010983788
620.92	0.12347	0.118096358	0.005373642
620.96	0.12831	0.118106504	0.010203496
621	0.12332	0.11811665	0.00520335
621.04	0.12439	0.118126796	0.006263204
621.08	0.13004	0.118136942	0.011903058
621.12	0.12999	0.118147088	0.011842912
621.16	0.12714	0.118157234	0.008982766
621.2	0.12368	0.11816738	0.00551262
621.24	0.12261	0.118177526	0.004432474
621.28	0.12179	0.118187672	0.003602328
621.32	0.12744	0.118197818	0.009242182
621.36	0.11874	0.118207964	0.000532036
621.4	0.11889	0.11821811	0.00067189
621.44	0.1252	0.118228256	0.006971744
621.48	0.12342	0.118238402	0.005181598
621.52	0.13121	0.118248548	0.012961452
621.56	0.12424	0.118258694	0.005981306
621.6	0.12902	0.11826884	0.01075116
621.64	0.12459	0.118278986	0.006311014
621.68	0.1252	0.118289132	0.006910868
621.72	0.12541	0.118299278	0.007110722
621.76	0.12419	0.118309424	0.005880576
621.8	0.12928	0.11831957	0.01096043
621.84	0.12062	0.118329716	0.002290284
621.88	0.12342	0.118339862	0.005080138
621.92	0.11874	0.118350008	0.000389992
621.96	0.12999	0.118360154	0.011629846
622	0.13014	0.1183703	0.0117697
622.04	0.12709	0.118380446	0.008709554
622.08	0.12245	0.118390592	0.004059408
622.12	0.13294	0.118400738	0.014539262
622.16	0.12923	0.118410884	0.010819116
622.2	0.12159	0.11842103	0.00316897
622.24	0.12714	0.118431176	0.008708824
622.28	0.13101	0.118441322	0.012568678
622.32	0.13111	0.118451468	0.012658532
622.36	0.12719	0.118461614	0.008728386
622.4	0.12342	0.11847176	0.00494824
622.44	0.13014	0.118481906	0.011658094
622.48	0.12627	0.118492052	0.007777948
622.52	0.12724	0.118502198	0.008737802
622.56	0.12729	0.118512344	0.008777656
622.6	0.12744	0.11852249	0.00891751
622.64	0.13737	0.118532636	0.018837364
622.68	0.1387	0.118542782	0.020157218
622.72	0.14501	0.118552928	0.026457072
622.76	0.13844	0.118563074	0.019876926
622.8	0.14888	0.11857322	0.03030678
622.84	0.15835	0.118583366	0.039766634
622.88	0.1582	0.118593512	0.039606488
622.92	0.1668	0.118603658	0.048196342
622.96	0.18009	0.118613804	0.061476196
623	0.17362	0.11862395	0.05499605
623.04	0.1916	0.118634096	0.072965904
623.08	0.20178	0.118644242	0.083135758
623.12	0.21018	0.118654388	0.091525612
623.16	0.22245	0.118664534	0.103785466
623.2	0.2224	0.11867468	0.10372532
623.24	0.23767	0.118684826	0.118985174
623.28	0.25137	0.118694972	0.132675028
623.32	0.27448	0.118705118	0.155774882
623.36	0.30279	0.118715264	0.184074736
623.4	0.31664	0.11872541	0.19791459
623.44	0.36379	0.118735556	0.245054444
623.48	0.36353	0.118745702	0.244784298
623.52	0.37229	0.118755848	0.253534152
623.56	0.38751	0.118765994	0.268744006
623.6	0.41093	0.11877614	0.29215386
623.64	0.43069	0.118786286	0.311903714
623.68	0.43649	0.118796432	0.317693568
623.72	0.46567	0.118806578	0.346863422
623.76	0.46546	0.118816724	0.346643276
623.8	0.4536	0.11882687	0.33477313
623.84	0.4538	0.118837016	0.334962984
623.88	0.44306	0.118847162	0.324212838
623.92	0.4534	0.118857308	0.334542692
623.96	0.46572	0.118867454	0.346852546
624	0.44204	0.1188776	0.3231624
624.04	0.44301	0.118887746	0.324122254
624.08	0.44301	0.118897892	0.324112108
624.12	0.43542	0.118908038	0.316511962
624.16	0.43288	0.118918184	0.313961816
624.2	0.43013	0.11892833	0.31120167
624.24	0.41658	0.118938476	0.297641524
624.28	0.39347	0.118948622	0.274521378
624.32	0.38756	0.118958768	0.268601232
624.36	0.38756	0.118968914	0.268591086
624.4	0.36368	0.11897906	0.24470094
624.44	0.34418	0.118989206	0.225190794
624.48	0.32061	0.118999352	0.201610648
624.52	0.29526	0.119009498	0.176250502
624.56	0.2753	0.119019644	0.156280356
624.6	0.23528	0.11902979	0.11625021
624.64	0.22444	0.119039936	0.105400064
624.68	0.22449	0.119050082	0.105439918
624.72	0.21293	0.119060228	0.093869772
624.76	0.19368	0.119070374	0.074609626
624.8	0.17897	0.11908052	0.05988948
624.84	0.17642	0.119090666	0.057329334
624.88	0.15942	0.119100812	0.040319188
624.92	0.15932	0.119110958	0.040209042
624.96	0.15932	0.119121104	0.040198896
625	0.15738	0.11913125	0.03824875
625.04	0.14236	0.119141396	0.023218604
625.08	0.13936	0.119151542	0.020208458
625.12	0.14328	0.119161688	0.024118312
625.16	0.14221	0.119171834	0.023038166
625.2	0.14145	0.11918198	0.02226802
625.24	0.14109	0.119192126	0.021897874
625.28	0.14425	0.119202272	0.025047728
625.32	0.15743	0.119212418	0.038217582
625.36	0.14985	0.119222564	0.030627436
625.4	0.14425	0.11923271	0.02501729
625.44	0.14705	0.119242856	0.027807144
625.48	0.16018	0.119253002	0.040926998
625.52	0.16879	0.119263148	0.049526852
625.56	0.16874	0.119273294	0.049466706
625.6	0.16196	0.11928344	0.04267656
625.64	0.1725	0.119293586	0.053206414
625.68	0.17118	0.119303732	0.051876268
625.72	0.18004	0.119313878	0.060726122
625.76	0.18213	0.119324024	0.062805976
625.8	0.20473	0.11933417	0.08539583
625.84	0.20458	0.119344316	0.085235684
625.88	0.2111	0.119354462	0.091745538
625.92	0.21507	0.119364608	0.095705392
625.96	0.2252	0.119374754	0.105825246
626	0.2394	0.1193849	0.1200151
626.04	0.26018	0.119395046	0.140784954
626.08	0.25183	0.119405192	0.132424808
626.12	0.28991	0.119415338	0.170494662
626.16	0.29006	0.119425484	0.170634516
626.2	0.30076	0.11943563	0.18132437
626.24	0.30539	0.119445776	0.185944224
626.28	0.31766	0.119455922	0.198204078
626.32	0.32443	0.119466068	0.204963932
626.36	0.32983	0.119476214	0.210353786
626.4	0.34413	0.11948636	0.22464364
626.44	0.34429	0.119496506	0.224793494
626.48	0.3534	0.119506652	0.233893348
626.52	0.34474	0.119516798	0.225223202
626.56	0.34943	0.119526944	0.229903056
626.6	0.36012	0.11953709	0.24058291
626.64	0.34872	0.119547236	0.229172764
626.68	0.35997	0.119557382	0.240412618
626.72	0.36027	0.119567528	0.240702472
626.76	0.3448	0.119577674	0.225222326
626.8	0.33105	0.11958782	0.21146218
626.84	0.31964	0.119597966	0.200042034
626.88	0.32153	0.119608112	0.201921888
626.92	0.30569	0.119618258	0.186071742
626.96	0.29689	0.119628404	0.177261596
627	0.29964	0.11963855	0.18000145
627.04	0.29994	0.119648696	0.180291304
627.08	0.28385	0.119658842	0.164191158
627.12	0.27459	0.119668988	0.154921012
627.16	0.24984	0.119679134	0.130160866
627.2	0.26008	0.11968928	0.14039072
627.24	0.22657	0.119699426	0.106870574
627.28	0.21023	0.119709572	0.090520428
627.32	0.21013	0.119719718	0.090410282
627.36	0.20819	0.119729864	0.088460136
627.4	0.17815	0.11974001	0.05840999
627.44	0.17647	0.119750156	0.056719844
627.48	0.17072	0.119760302	0.050959698
627.52	0.1639	0.119770448	0.044129552
627.56	0.16385	0.119780594	0.044069406
627.6	0.16339	0.11979074	0.04359926
627.64	0.16196	0.119800886	0.042159114
627.68	0.14903	0.119811032	0.029218968
627.72	0.15387	0.119821178	0.034048822
627.76	0.14445	0.119831324	0.024618676
627.8	0.14735	0.11984147	0.02750853
627.84	0.1529	0.119851616	0.033048384
627.88	0.14435	0.119861762	0.024488238
627.92	0.1444	0.119871908	0.024528092
627.96	0.14883	0.119882054	0.028947946
628	0.15367	0.1198922	0.0337778
628.04	0.15056	0.119902346	0.030657654
628.08	0.1498	0.119912492	0.029887508
628.12	0.15631	0.119922638	0.036387362
628.16	0.15168	0.119932784	0.031747216
628.2	0.15183	0.11994293	0.03188707
628.24	0.14542	0.119953076	0.025466924
628.28	0.14913	0.119963222	0.029166778
628.32	0.1415	0.119973368	0.021526632
628.36	0.14246	0.119983514	0.022476486
628.4	0.14134	0.11999366	0.02134634
628.44	0.14974	0.120003806	0.029736194
628.48	0.14129	0.120013952	0.021276048
628.52	0.14124	0.120024098	0.021215902
628.56	0.14022	0.120034244	0.020185756
628.6	0.14501	0.12004439	0.02496561
628.64	0.14308	0.120054536	0.023025464
628.68	0.13941	0.120064682	0.019345318
628.72	0.13936	0.120074828	0.019285172
628.76	0.14119	0.120084974	0.021105026
628.8	0.14134	0.12009512	0.02124488
628.84	0.13737	0.120105266	0.017264734
628.88	0.13523	0.120115412	0.015114588
628.92	0.13498	0.120125558	0.014854442
628.96	0.13493	0.120135704	0.014794296
629	0.12989	0.12014585	0.00974415
629.04	0.13595	0.120155996	0.015794004
629.08	0.13585	0.120166142	0.015683858
629.12	0.13208	0.120176288	0.011903712
629.16	0.12627	0.120186434	0.006083566
629.2	0.12928	0.12019658	0.00908342
629.24	0.12602	0.120206726	0.005813274
629.28	0.12454	0.120216872	0.004323128
629.32	0.12077	0.120227018	0.000542982
629.36	0.11782	0.120237164	-0.002417164
629.4	0.11772	0.12024731	-0.00252731
629.44	0.11808	0.120257456	-0.002177456
629.48	0.11477	0.120267602	-0.005497602
629.52	0.11405	0.120277748	-0.006227748
629.56	0.11395	0.120287894	-0.006337894
629.6	0.11202	0.12029804	-0.00827804
629.64	0.1111	0.120308186	-0.009208186
629.68	0.11115	0.120318332	-0.009168332
629.72	0.11227	0.120328478	-0.008058478
629.76	0.10906	0.120338624	-0.011278624
629.8	0.11034	0.12034877	-0.01000877
629.84	0.10637	0.120358916	-0.013988916
629.88	0.10626	0.120369062	-0.014109062
629.92	0.11599	0.120379208	-0.004389208
629.96	0.11614	0.120389354	-0.004249354
630	0.11186	0.1203995	-0.0085395
630.04	0.09995	0.120409646	-0.020459646
630.08	0.11319	0.120419792	-0.007229792
630.12	0.1109	0.120429938	-0.009529938
630.16	0.10107	0.120440084	-0.019370084
630.2	0.11029	0.12045023	-0.01016023
630.24	0.10845	0.120460376	-0.012010376
630.28	0.1082	0.120470522	-0.012270522
630.32	0.1083	0.120480668	-0.012180668
630.36	0.10723	0.120490814	-0.013260814
630.4	0.11034	0.12050096	-0.01016096
630.44	0.11217	0.120511106	-0.008341106
630.48	0.11018	0.120521252	-0.010341252
630.52	0.10749	0.120531398	-0.013041398
630.56	0.10749	0.120541544	-0.013051544
630.6	0.10637	0.12055169	-0.01418169
630.64	0.1057	0.120561836	-0.014861836
630.68	0.10535	0.120571982	-0.015221982
630.72	0.10922	0.120582128	-0.011362128
630.76	0.10815	0.120592274	-0.012442274
630.8	0.1055	0.12060242	-0.01510242
630.84	0.10464	0.120612566	-0.015972566
630.88	0.10469	0.120622712	-0.015932712
630.92	0.10469	0.120632858	-0.015942858
630.96	0.10082	0.120643004	-0.019823004
631	0.10112	0.12065315	-0.01953315
631.04	0.11039	0.120663296	-0.010273296
631.08	0.11212	0.120673442	-0.008553442
631.12	0.10733	0.120683588	-0.013353588
631.16	0.10774	0.120693734	-0.012953734
631.2	0.11777	0.12070388	-0.00293388
631.24	0.11675	0.120714026	-0.003964026
631.28	0.11411	0.120724172	-0.006614172
631.32	0.11986	0.120734318	-0.000874318
631.36	0.12358	0.120744464	0.002835536
631.4	0.12816	0.12075461	0.00740539
631.44	0.12811	0.120764756	0.007345244
631.48	0.13228	0.120774902	0.011505098
631.52	0.13595	0.120785048	0.015164952
631.56	0.13844	0.120795194	0.017644806
631.6	0.14252	0.12080534	0.02171466
631.64	0.14959	0.120815486	0.028774514
631.68	0.15932	0.120825632	0.038494368
631.72	0.15275	0.120835778	0.031914222
631.76	0.1528	0.120845924	0.031954076
631.8	0.16044	0.12085607	0.03958393
631.84	0.15932	0.120866216	0.038453784
631.88	0.16497	0.120876362	0.044093638
631.92	0.16522	0.120886508	0.044333492
631.96	0.16767	0.120896654	0.046773346
632	0.17052	0.1209068	0.0496132
632.04	0.17067	0.120916946	0.049753054
632.08	0.17709	0.120927092	0.056162908
632.12	0.16975	0.120937238	0.048812762
632.16	0.16695	0.120947384	0.046002616
632.2	0.18477	0.12095753	0.06381247
632.24	0.17922	0.120967676	0.058252324
632.28	0.18488	0.120977822	0.063902178
632.32	0.18467	0.120987968	0.063682032
632.36	0.17525	0.120998114	0.054251886
632.4	0.16568	0.12100826	0.04467174
632.44	0.17454	0.121018406	0.053521594
632.48	0.17235	0.121028552	0.051321448
632.52	0.1697	0.121038698	0.048661302
632.56	0.16711	0.121048844	0.046061156
632.6	0.17149	0.12105899	0.05043101
632.64	0.17149	0.121069136	0.050420864
632.68	0.1668	0.121079282	0.045720718
632.72	0.15845	0.121089428	0.037360572
632.76	0.15183	0.121099574	0.030730426
632.8	0.15458	0.12110972	0.03347028
632.84	0.15361	0.121119866	0.032490134
632.88	0.13956	0.121130012	0.018429988
632.92	0.13966	0.121140158	0.018519842
632.96	0.14068	0.121150304	0.019529696
633	0.14043	0.12116045	0.01926955
633.04	0.13956	0.121170596	0.018389404
633.08	0.13758	0.121180742	0.016399258
633.12	0.13376	0.121190888	0.012569112
633.16	0.12638	0.121201034	0.005178966
633.2	0.12923	0.12121118	0.00801882
633.24	0.12912	0.121221326	0.007898674
633.28	0.12245	0.121231472	0.001218528
633.32	0.12057	0.121241618	-0.000671618
633.36	0.12144	0.121251764	0.000188236
633.4	0.11782	0.12126191	-0.00344191
633.44	0.11869	0.121272056	-0.002582056
633.48	0.11594	0.121282202	-0.005342202
633.52	0.11573	0.121292348	-0.005562348
633.56	0.11584	0.121302494	-0.005462494
633.6	0.11589	0.12131264	-0.00542264
633.64	0.11314	0.121322786	-0.008182786
633.68	0.1083	0.121332932	-0.013032932
633.72	0.10545	0.121343078	-0.015893078
633.76	0.1026	0.121353224	-0.018753224
633.8	0.1028	0.12136337	-0.01856337
633.84	0.10759	0.121373516	-0.013783516
633.88	0.10637	0.121383662	-0.015013662
633.92	0.10728	0.121393808	-0.014113808
633.96	0.10917	0.121403954	-0.012233954
634	0.10453	0.1214141	-0.0168841
634.04	0.10576	0.121424246	-0.015664246
634.08	0.11207	0.121434392	-0.009364392
634.12	0.11222	0.121444538	-0.009224538
634.16	0.10906	0.121454684	-0.012394684
634.2	0.10932	0.12146483	-0.01214483
634.24	0.11192	0.121474976	-0.009554976
634.28	0.10621	0.121485122	-0.015275122
634.32	0.10448	0.121495268	-0.017015268
634.36	0.10912	0.121505414	-0.012385414
634.4	0.10927	0.12151556	-0.01224556
634.44	0.10255	0.121525706	-0.018975706
634.48	0.10015	0.121535852	-0.021385852
634.52	0.10082	0.121545998	-0.020725998
634.56	0.1082	0.121556144	-0.013356144
634.6	0.10637	0.12156629	-0.01519629
634.64	0.1084	0.121576436	-0.013176436
634.68	0.10565	0.121586582	-0.015936582
634.72	0.1056	0.121596728	-0.015996728
634.76	0.10362	0.121606874	-0.017986874
634.8	0.11273	0.12161702	-0.00888702
634.84	0.10764	0.121627166	-0.013987166
634.88	0.11024	0.121637312	-0.011397312
634.92	0.10168	0.121647458	-0.019967458
634.96	0.10744	0.121657604	-0.014217604