	m	t	
f	4.99547E-05	0.076137	
			
			
X in nm	Y Signal 	f	y-f
560.04	0.10199	0.10411363	-0.00212363
560.08	0.10178	0.104115628	-0.002335628
560.12	0.10387	0.104117627	-0.000247627
560.16	0.10382	0.104119625	-0.000299625
560.2	0.10377	0.104121623	-0.000351623
560.24	0.10626	0.104123621	0.002136379
560.28	0.10377	0.104125619	-0.000355619
560.32	0.10372	0.104127618	-0.000407618
560.36	0.10077	0.104129616	-0.003359616
560.4	0.1053	0.104131614	0.001168386
560.44	0.09903	0.104133612	-0.005103612
560.48	0.09919	0.10413561	-0.00494561
560.52	0.10555	0.104137608	0.001412392
560.56	0.1027	0.104139607	-0.001439607
560.6	0.10626	0.104141605	0.002118395
560.64	0.10122	0.104143603	-0.002923603
560.68	0.10535	0.104145601	0.001204399
560.72	0.11115	0.104147599	0.007002401
560.76	0.1108	0.104149598	0.006650402
560.8	0.10194	0.104151596	-0.002211596
560.84	0.10392	0.104153594	-0.000233594
560.88	0.10474	0.104155592	0.000584408
560.92	0.09985	0.10415759	-0.00430759
560.96	0.1055	0.104159589	0.001340411
561	0.10163	0.104161587	-0.002531587
561.04	0.10357	0.104163585	-0.000593585
561.08	0.10387	0.104165583	-0.000295583
561.12	0.10071	0.104167581	-0.003457581
561.16	0.09685	0.104169579	-0.007319579
561.2	0.1055	0.104171578	0.001328422
561.24	0.10479	0.104173576	0.000616424
561.28	0.1001	0.104175574	-0.004075574
561.32	0.10301	0.104177572	-0.001167572
561.36	0.10295	0.10417957	-0.00122957
561.4	0.10382	0.104181569	-0.000361569
561.44	0.10183	0.104183567	-0.002353567
561.48	0.10153	0.104185565	-0.002655565
561.52	0.10749	0.104187563	0.003302437
561.56	0.10199	0.104189561	-0.002199561
561.6	0.10535	0.10419156	0.00115844
561.64	0.10469	0.104193558	0.000496442
561.68	0.10464	0.104195556	0.000444444
561.72	0.10168	0.104197554	-0.002517554
561.76	0.10285	0.104199552	-0.001349552
561.8	0.10285	0.10420155	-0.00135155
561.84	0.10204	0.104203549	-0.002163549
561.88	0.10555	0.104205547	0.001344453
561.92	0.10738	0.104207545	0.003172455
561.96	0.10754	0.104209543	0.003330457
562	0.1028	0.104211541	-0.001411541
562.04	0.1028	0.10421354	-0.00141354
562.08	0.10275	0.104215538	-0.001465538
562.12	0.10555	0.104217536	0.001332464
562.16	0.10555	0.104219534	0.001330466
562.2	0.10092	0.104221532	-0.003301532
562.24	0.10077	0.104223531	-0.003453531
562.28	0.10173	0.104225529	-0.002495529
562.32	0.10754	0.104227527	0.003312473
562.36	0.10357	0.104229525	-0.000659525
562.4	0.10178	0.104231523	-0.002451523
562.44	0.10525	0.104233521	0.001016479
562.48	0.10484	0.10423552	0.00060448
562.52	0.09817	0.104237518	-0.006067518
562.56	0.09807	0.104239516	-0.006169516
562.6	0.09786	0.104241514	-0.006381514
562.64	0.09985	0.104243512	-0.004393512
562.68	0.10382	0.104245511	-0.000425511
562.72	0.10209	0.104247509	-0.002157509
562.76	0.10565	0.104249507	0.001400493
562.8	0.10189	0.104251505	-0.002361505
562.84	0.10183	0.104253503	-0.002423503
562.88	0.10092	0.104255502	-0.003335502
562.92	0.1027	0.1042575	-0.0015575
562.96	0.10071	0.104259498	-0.003549498
563	0.10173	0.104261496	-0.002531496
563.04	0.10168	0.104263494	-0.002583494
563.08	0.09995	0.104265492	-0.004315492
563.12	0.09975	0.104267491	-0.004517491
563.16	0.1	0.104269489	-0.004269489
563.2	0.10285	0.104271487	-0.001421487
563.24	0.10077	0.104273485	-0.003503485
563.28	0.10066	0.104275483	-0.003615483
563.32	0.0998	0.104277482	-0.004477482
563.36	0.10688	0.10427948	0.00260052
563.4	0.10173	0.104281478	-0.002551478
563.44	0.10173	0.104283476	-0.002553476
563.48	0.09893	0.104285474	-0.005355474
563.52	0.10071	0.104287473	-0.003577473
563.56	0.09995	0.104289471	-0.004339471
563.6	0.1056	0.104291469	0.001308531
563.64	0.10555	0.104293467	0.001256533
563.68	0.10448	0.104295465	0.000184535
563.72	0.10474	0.104297463	0.000442537
563.76	0.10565	0.104299462	0.001350538
563.8	0.10275	0.10430146	-0.00155146
563.84	0.10662	0.104303458	0.002316542
563.88	0.10845	0.104305456	0.004144544
563.92	0.10545	0.104307454	0.001142546
563.96	0.10194	0.104309453	-0.002369453
564	0.1056	0.104311451	0.001288549
564.04	0.10545	0.104313449	0.001136551
564.08	0.10265	0.104315447	-0.001665447
564.12	0.10377	0.104317445	-0.000547445
564.16	0.10545	0.104319444	0.001130556
564.2	0.1084	0.104321442	0.004078558
564.24	0.1081	0.10432344	0.00377656
564.28	0.1056	0.104325438	0.001274562
564.32	0.10555	0.104327436	0.001222564
564.36	0.10845	0.104329434	0.004120566
564.4	0.11293	0.104331433	0.008598567
564.44	0.1113	0.104333431	0.006966569
564.48	0.11706	0.104335429	0.012724571
564.52	0.12062	0.104337427	0.016282573
564.56	0.11675	0.104339425	0.012410575
564.6	0.11691	0.104341424	0.012568576
564.64	0.12052	0.104343422	0.016176578
564.68	0.11991	0.10434542	0.01556458
564.72	0.12632	0.104347418	0.021972582
564.76	0.12602	0.104349416	0.021670584
564.8	0.13203	0.104351415	0.027678585
564.84	0.13014	0.104353413	0.025786587
564.88	0.136	0.104355411	0.031644589
564.92	0.13595	0.104357409	0.031592591
564.96	0.13483	0.104359407	0.030470593
565	0.13921	0.104361406	0.034848595
565.04	0.14114	0.104363404	0.036776596
565.08	0.14043	0.104365402	0.036064598
565.12	0.13747	0.1043674	0.0331026
565.16	0.15076	0.104369398	0.046390602
565.2	0.15076	0.104371396	0.046388604
565.24	0.14236	0.104373395	0.037986605
565.28	0.13859	0.104375393	0.034214607
565.32	0.14236	0.104377391	0.037982609
565.36	0.14893	0.104379389	0.044550611
565.4	0.14796	0.104381387	0.043578613
565.44	0.15	0.104383386	0.045616614
565.48	0.1502	0.104385384	0.045814616
565.52	0.14501	0.104387382	0.040622618
565.56	0.14603	0.10438938	0.04164062
565.6	0.14435	0.104391378	0.039958622
565.64	0.13921	0.104393377	0.034816623
565.68	0.14445	0.104395375	0.040054625
565.72	0.13564	0.104397373	0.031242627
565.76	0.1359	0.104399371	0.031500629
565.8	0.13554	0.104401369	0.031138631
565.84	0.14211	0.104403367	0.037706633
565.88	0.14236	0.104405366	0.037954634
565.92	0.13666	0.104407364	0.032252636
565.96	0.13289	0.104409362	0.028480638
566	0.12994	0.10441136	0.02552864
566.04	0.13498	0.104413358	0.030566642
566.08	0.13483	0.104415357	0.030414643
566.12	0.12352	0.104417355	0.019102645
566.16	0.12627	0.104419353	0.021850647
566.2	0.12358	0.104421351	0.019158649
566.24	0.12612	0.104423349	0.021696651
566.28	0.11874	0.104425348	0.014314652
566.32	0.11874	0.104427346	0.014312654
566.36	0.11594	0.104429344	0.011510656
566.4	0.11599	0.104431342	0.011558658
566.44	0.10738	0.10443334	0.00294666
566.48	0.11421	0.104435338	0.009774662
566.52	0.10565	0.104437337	0.001212663
566.56	0.10744	0.104439335	0.003000665
566.6	0.11309	0.104441333	0.008648667
566.64	0.114	0.104443331	0.009556669
566.68	0.11395	0.104445329	0.009504671
566.72	0.10621	0.104447328	0.001762672
566.76	0.10912	0.104449326	0.004670674
566.8	0.10728	0.104451324	0.002828676
566.84	0.10392	0.104453322	-0.000533322
566.88	0.10408	0.10445532	-0.00037532
566.92	0.10275	0.104457319	-0.001707319
566.96	0.1029	0.104459317	-0.001559317
567	0.10861	0.104461315	0.004148685
567.04	0.10453	0.104463313	6.66869E-05
567.08	0.10469	0.104465311	0.000224689
567.12	0.10352	0.104467309	-0.000947309
567.16	0.10866	0.104469308	0.004190692
567.2	0.10723	0.104471306	0.002758694
567.24	0.10372	0.104473304	-0.000753304
567.28	0.10357	0.104475302	-0.000905302
567.32	0.10265	0.1044773	-0.0018273
567.36	0.10474	0.104479299	0.000260701
567.4	0.10647	0.104481297	0.001988703
567.44	0.10397	0.104483295	-0.000513295
567.48	0.10835	0.104485293	0.003864707
567.52	0.10728	0.104487291	0.002792709
567.56	0.10723	0.10448929	0.00274071
567.6	0.10565	0.104491288	0.001158712
567.64	0.10733	0.104493286	0.002836714
567.68	0.11222	0.104495284	0.007724716
567.72	0.1168	0.104497282	0.012302718
567.76	0.11782	0.10449928	0.01332072
567.8	0.12144	0.104501279	0.016938721
567.84	0.12021	0.104503277	0.015706723
567.88	0.11589	0.104505275	0.011384725
567.92	0.12643	0.104507273	0.021922727
567.96	0.11991	0.104509271	0.015400729
568	0.12174	0.10451127	0.01722873
568.04	0.1303	0.104513268	0.025786732
568.08	0.11497	0.104515266	0.010454734
568.12	0.12551	0.104517264	0.020992736
568.16	0.12536	0.104519262	0.020840738
568.2	0.12526	0.104521261	0.020738739
568.24	0.12149	0.104523259	0.016966741
568.28	0.13198	0.104525257	0.027454743
568.32	0.13355	0.104527255	0.029022745
568.36	0.13198	0.104529253	0.027450747
568.4	0.13198	0.104531251	0.027448749
568.44	0.13203	0.10453325	0.02749675
568.48	0.14425	0.104535248	0.039714752
568.52	0.1387	0.104537246	0.034162754
568.56	0.13574	0.104539244	0.031200756
568.6	0.13737	0.104541242	0.032828758
568.64	0.14053	0.104543241	0.035986759
568.68	0.14343	0.104545239	0.038884761
568.72	0.13381	0.104547237	0.029262763
568.76	0.13371	0.104549235	0.029160765
568.8	0.13585	0.104551233	0.031298767
568.84	0.13396	0.104553232	0.029406768
568.88	0.13493	0.10455523	0.03037477
568.92	0.13488	0.104557228	0.030322772
568.96	0.13279	0.104559226	0.028230774
569	0.12449	0.104561224	0.019928776
569.04	0.12459	0.104563222	0.020026778
569.08	0.13493	0.104565221	0.030364779
569.12	0.12551	0.104567219	0.020942781
569.16	0.12729	0.104569217	0.022720783
569.2	0.13014	0.104571215	0.025568785
569.24	0.11594	0.104573213	0.011366787
569.28	0.11456	0.104575212	0.009984788
569.32	0.11482	0.10457721	0.01024279
569.36	0.11767	0.104579208	0.013090792
569.4	0.11507	0.104581206	0.010488794
569.44	0.11614	0.104583204	0.011556796
569.48	0.11899	0.104585203	0.014404797
569.52	0.11212	0.104587201	0.007532799
569.56	0.10922	0.104589199	0.004630801
569.6	0.11039	0.104591197	0.005798803
569.64	0.11013	0.104593195	0.005536805
569.68	0.10891	0.104595193	0.004314807
569.72	0.10367	0.104597192	-0.000927192
569.76	0.10178	0.10459919	-0.00281919
569.8	0.10621	0.104601188	0.001608812
569.84	0.10173	0.104603186	-0.002873186
569.88	0.10199	0.104605184	-0.002615184
569.92	0.10189	0.104607183	-0.002717183
569.96	0.1055	0.104609181	0.000890819
570	0.10922	0.104611179	0.004608821
570.04	0.10723	0.104613177	0.002616823
570.08	0.09715	0.104615175	-0.007465175
570.12	0.10835	0.104617174	0.003732826
570.16	0.1083	0.104619172	0.003680828
570.2	0.09776	0.10462117	-0.00686117
570.24	0.09771	0.104623168	-0.006913168
570.28	0.10178	0.104625166	-0.002845166
570.32	0.1026	0.104627165	-0.002027165
570.36	0.10061	0.104629163	-0.004019163
570.4	0.10265	0.104631161	-0.001981161
570.44	0.10637	0.104633159	0.001736841
570.48	0.10738	0.104635157	0.002744843
570.52	0.10728	0.104637155	0.002642845
570.56	0.10474	0.104639154	0.000100846
570.6	0.10754	0.104641152	0.002898848
570.64	0.1085	0.10464315	0.00385685
570.68	0.10357	0.104645148	-0.001075148
570.72	0.10642	0.104647146	0.001772854
570.76	0.10448	0.104649145	-0.000169145
570.8	0.10458	0.104651143	-7.11428E-05
570.84	0.10545	0.104653141	0.000796859
570.88	0.1082	0.104655139	0.003544861
570.92	0.1082	0.104657137	0.003542863
570.96	0.10912	0.104659136	0.004460864
571	0.10845	0.104661134	0.003788866
571.04	0.10932	0.104663132	0.004656868
571.08	0.11298	0.10466513	0.00831487
571.12	0.11329	0.104667128	0.008622872
571.16	0.11217	0.104669126	0.007500874
571.2	0.11416	0.104671125	0.009488875
571.24	0.11212	0.104673123	0.007446877
571.28	0.11477	0.104675121	0.010094879
571.32	0.11054	0.104677119	0.005862881
571.36	0.11298	0.104679117	0.008300883
571.4	0.11293	0.104681116	0.008248884
571.44	0.11405	0.104683114	0.009366886
571.48	0.11864	0.104685112	0.013954888
571.52	0.11884	0.10468711	0.01415289
571.56	0.11416	0.104689108	0.009470892
571.6	0.11624	0.104691107	0.011548893
571.64	0.11619	0.104693105	0.011496895
571.68	0.11614	0.104695103	0.011444897
571.72	0.11309	0.104697101	0.008392899
571.76	0.11105	0.104699099	0.006350901
571.8	0.11752	0.104701097	0.012818903
571.84	0.111	0.104703096	0.006296904
571.88	0.11034	0.104705094	0.005634906
571.92	0.10815	0.104707092	0.003442908
571.96	0.11288	0.10470909	0.00817091
572	0.11319	0.104711088	0.008478912
572.04	0.10642	0.104713087	0.001706913
572.08	0.11482	0.104715085	0.010104915
572.12	0.11034	0.104717083	0.005622917
572.16	0.10733	0.104719081	0.002610919
572.2	0.1083	0.104721079	0.003578921
572.24	0.11018	0.104723078	0.005456922
572.28	0.11029	0.104725076	0.005564924
572.32	0.11293	0.104727074	0.008202926
572.36	0.1112	0.104729072	0.006470928
572.4	0.10917	0.10473107	0.00443893
572.44	0.10443	0.104733068	-0.000303068
572.48	0.11008	0.104735067	0.005344933
572.52	0.10469	0.104737065	-4.70648E-05
572.56	0.11008	0.104739063	0.005340937
572.6	0.11018	0.104741061	0.005438939
572.64	0.10662	0.104743059	0.001876941
572.68	0.1112	0.104745058	0.006454942
572.72	0.10458	0.104747056	-0.000167056
572.76	0.09715	0.104749054	-0.007599054
572.8	0.09842	0.104751052	-0.006331052
572.84	0.10275	0.10475305	-0.00200305
572.88	0.1027	0.104755049	-0.002055049
572.92	0.10005	0.104757047	-0.004707047
572.96	0.10922	0.104759045	0.004460955
573	0.10178	0.104761043	-0.002981043
573.04	0.10469	0.104763041	-7.30413E-05
573.08	0.10021	0.104765039	-0.004555039
573.12	0.09903	0.104767038	-0.005737038
573.16	0.09893	0.104769036	-0.005839036
573.2	0.10474	0.104771034	-3.1034E-05
573.24	0.09898	0.104773032	-0.005793032
573.28	0.10183	0.10477503	-0.00294503
573.32	0.10723	0.104777029	0.002452971
573.36	0.10667	0.104779027	0.001890973
573.4	0.10474	0.104781025	-4.1025E-05
573.44	0.1109	0.104783023	0.006116977
573.48	0.1108	0.104785021	0.006014979
573.52	0.11197	0.10478702	0.00718298
573.56	0.10733	0.104789018	0.002540982
573.6	0.11599	0.104791016	0.011198984
573.64	0.11227	0.104793014	0.007476986
573.68	0.11008	0.104795012	0.005284988
573.72	0.1168	0.10479701	0.01200299
573.76	0.11685	0.104799009	0.012050991
573.8	0.11232	0.104801007	0.007518993
573.84	0.11573	0.104803005	0.010926995
573.88	0.11624	0.104805003	0.011434997
573.92	0.12174	0.104807001	0.016932999
573.96	0.12627	0.104809	0.021461
574	0.11864	0.104810998	0.013829002
574.04	0.11864	0.104812996	0.013827004
574.08	0.12638	0.104814994	0.021565006
574.12	0.12444	0.104816992	0.019623008
574.16	0.12541	0.104818991	0.020591009
574.2	0.12892	0.104820989	0.024099011
574.24	0.11889	0.104822987	0.014067013
574.28	0.12963	0.104824985	0.024805015
574.32	0.13366	0.104826983	0.028833017
574.36	0.13391	0.104828981	0.029081019
574.4	0.13203	0.10483098	0.02719902
574.44	0.13299	0.104832978	0.028157022
574.48	0.13493	0.104834976	0.030095024
574.52	0.12821	0.104836974	0.023373026
574.56	0.13656	0.104838972	0.031721028
574.6	0.13294	0.104840971	0.028099029
574.64	0.13284	0.104842969	0.027997031
574.68	0.13488	0.104844967	0.030035033
574.72	0.13931	0.104846965	0.034463035
574.76	0.12734	0.104848963	0.022491037
574.8	0.13024	0.104850962	0.025389038
574.84	0.12821	0.10485296	0.02335704
574.88	0.12164	0.104854958	0.016785042
574.92	0.12923	0.104856956	0.024373044
574.96	0.12902	0.104858954	0.024161046
575	0.13483	0.104860953	0.029969048
575.04	0.13289	0.104862951	0.028027049
575.08	0.13305	0.104864949	0.028185051
575.12	0.13676	0.104866947	0.031893053
575.16	0.13498	0.104868945	0.030111055
575.2	0.14119	0.104870943	0.036319057
575.24	0.14145	0.104872942	0.036577058
575.28	0.13681	0.10487494	0.03193506
575.32	0.13753	0.104876938	0.032653062
575.36	0.14257	0.104878936	0.037691064
575.4	0.14694	0.104880934	0.042059066
575.44	0.14328	0.104882933	0.038397067
575.48	0.14603	0.104884931	0.041145069
575.52	0.14613	0.104886929	0.041243071
575.56	0.15102	0.104888927	0.046131073
575.6	0.14796	0.104890925	0.043069075
575.64	0.16319	0.104892924	0.058297076
575.68	0.16512	0.104894922	0.060225078
575.72	0.16125	0.10489692	0.05635308
575.76	0.16594	0.104898918	0.061041082
575.8	0.167	0.104900916	0.062099084
575.84	0.16706	0.104902914	0.062157086
575.88	0.1697	0.104904913	0.064795087
575.92	0.17602	0.104906911	0.071113089
575.96	0.18187	0.104908909	0.076961091
576	0.18844	0.104910907	0.083529093
576.04	0.18009	0.104912905	0.075177095
576.08	0.17541	0.104914904	0.070495096
576.12	0.17525	0.104916902	0.070333098
576.16	0.17892	0.1049189	0.0740011
576.2	0.17917	0.104920898	0.074249102
576.24	0.17902	0.104922896	0.074097104
576.28	0.178	0.104924895	0.073075105
576.32	0.17525	0.104926893	0.070323107
576.36	0.16787	0.104928891	0.062941109
576.4	0.16945	0.104930889	0.064519111
576.44	0.1694	0.104932887	0.064467113
576.48	0.16395	0.104934885	0.059015115
576.52	0.15932	0.104936884	0.054383116
576.56	0.16308	0.104938882	0.058141118
576.6	0.15158	0.10494088	0.04663912
576.64	0.14974	0.104942878	0.044797122
576.68	0.1471	0.104944876	0.042155124
576.72	0.1471	0.104946875	0.042153125
576.76	0.1442	0.104948873	0.039251127
576.8	0.13966	0.104950871	0.034709129
576.84	0.13773	0.104952869	0.032777131
576.88	0.14043	0.104954867	0.035475133
576.92	0.12607	0.104956866	0.021113134
576.96	0.12719	0.104958864	0.022231136
577	0.12729	0.104960862	0.022329138
577.04	0.12541	0.10496286	0.02044714
577.08	0.12536	0.104964858	0.020395142
577.12	0.1167	0.104966856	0.011733144
577.16	0.11477	0.104968855	0.009801145
577.2	0.10922	0.104970853	0.004249147
577.24	0.10932	0.104972851	0.004347149
577.28	0.10372	0.104974849	-0.001254849
577.32	0.10387	0.104976847	-0.001106847
577.36	0.10097	0.104978846	-0.004008846
577.4	0.10372	0.104980844	-0.001260844
577.44	0.10336	0.104982842	-0.001622842
577.48	0.10545	0.10498484	0.00046516
577.52	0.1083	0.104986838	0.003313162
577.56	0.10464	0.104988837	-0.000348837
577.6	0.10464	0.104990835	-0.000350835
577.64	0.10092	0.104992833	-0.004072833
577.68	0.10458	0.104994831	-0.000414831
577.72	0.10183	0.104996829	-0.003166829
577.76	0.10942	0.104998827	0.004421173
577.8	0.10469	0.105000826	-0.000310826
577.84	0.09985	0.105002824	-0.005152824
577.88	0.1001	0.105004822	-0.004904822
577.92	0.1057	0.10500682	0.00069318
577.96	0.10545	0.105008818	0.000441182
578	0.10285	0.105010817	-0.002160817
578.04	0.09807	0.105012815	-0.006942815
578.08	0.09802	0.105014813	-0.006994813
578.12	0.10367	0.105016811	-0.001346811
578.16	0.09868	0.105018809	-0.006338809
578.2	0.09919	0.105020808	-0.005830808
578.24	0.11018	0.105022806	0.005157194
578.28	0.1028	0.105024804	-0.002224804
578.32	0.10626	0.105026802	0.001233198
578.36	0.10453	0.1050288	-0.0004988
578.4	0.10392	0.105030798	-0.001110798
578.44	0.10642	0.105032797	0.001387203
578.48	0.10642	0.105034795	0.001385205
578.52	0.10448	0.105036793	-0.000556793
578.56	0.10285	0.105038791	-0.002188791
578.6	0.10657	0.105040789	0.001529211
578.64	0.10372	0.105042788	-0.001322788
578.68	0.10713	0.105044786	0.002085214
578.72	0.10077	0.105046784	-0.004276784
578.76	0.09827	0.105048782	-0.006778782
578.8	0.09812	0.10505078	-0.00693078
578.84	0.10362	0.105052779	-0.001432779
578.88	0.10199	0.105054777	-0.003064777
578.92	0.10738	0.105056775	0.002323225
578.96	0.10657	0.105058773	0.001511227
579	0.10749	0.105060771	0.002429229
579.04	0.1081	0.105062769	0.003037231
579.08	0.10835	0.105064768	0.003285232
579.12	0.10285	0.105066766	-0.002216766
579.16	0.10998	0.105068764	0.004911236
579.2	0.1055	0.105070762	0.000429238
579.24	0.11024	0.10507276	0.00516724
579.28	0.1112	0.105074759	0.006125241
579.32	0.11523	0.105076757	0.010153243
579.36	0.11502	0.105078755	0.009941245
579.4	0.11436	0.105080753	0.009279247
579.44	0.11304	0.105082751	0.007957249
579.48	0.11115	0.10508475	0.00606525
579.52	0.1111	0.105086748	0.006013252
579.56	0.11283	0.105088746	0.007741254
579.6	0.12057	0.105090744	0.015479256
579.64	0.11965	0.105092742	0.014557258
579.68	0.11981	0.10509474	0.01471526
579.72	0.11492	0.105096739	0.009823261
579.76	0.12164	0.105098737	0.016541263
579.8	0.12332	0.105100735	0.018219265
579.84	0.11874	0.105102733	0.013637267
579.88	0.12083	0.105104731	0.015725269
579.92	0.12067	0.10510673	0.01556327
579.96	0.12083	0.105108728	0.015721272
580	0.11563	0.105110726	0.010519274
580.04	0.12144	0.105112724	0.016327276
580.08	0.12536	0.105114722	0.020245278
580.12	0.12444	0.105116721	0.019323279
580.16	0.12164	0.105118719	0.016521281
580.2	0.12332	0.105120717	0.018199283
580.24	0.12352	0.105122715	0.018397285
580.28	0.12719	0.105124713	0.022065287
580.32	0.12459	0.105126712	0.019463288
580.36	0.12439	0.10512871	0.01926129
580.4	0.11894	0.105130708	0.013809292
580.44	0.13014	0.105132706	0.025007294
580.48	0.1251	0.105134704	0.019965296
580.52	0.1224	0.105136702	0.017263298
580.56	0.12251	0.105138701	0.017371299
580.6	0.13391	0.105140699	0.028769301
580.64	0.12989	0.105142697	0.024747303
580.68	0.13376	0.105144695	0.028615305
580.72	0.13926	0.105146693	0.034113307
580.76	0.1415	0.105148692	0.036351308
580.8	0.14145	0.10515069	0.03629931
580.84	0.14124	0.105152688	0.036087312
580.88	0.14063	0.105154686	0.035475314
580.92	0.13681	0.105156684	0.031653316
580.96	0.14353	0.105158683	0.038371317
581	0.14812	0.105160681	0.042959319
581.04	0.14964	0.105162679	0.044477321
581.08	0.1498	0.105164677	0.044635323
581.12	0.15244	0.105166675	0.047273325
581.16	0.1527	0.105168673	0.047531327
581.2	0.1585	0.105170672	0.053329328
581.24	0.16003	0.10517267	0.05485733
581.28	0.17062	0.105174668	0.065445332
581.32	0.16334	0.105176666	0.058163334
581.36	0.17154	0.105178664	0.066361336
581.4	0.17841	0.105180663	0.073229337
581.44	0.17821	0.105182661	0.073027339
581.48	0.17423	0.105184659	0.069045341
581.52	0.17719	0.105186657	0.072003343
581.56	0.18294	0.105188655	0.077751345
581.6	0.17327	0.105190654	0.068079346
581.64	0.17429	0.105192652	0.069097348
581.68	0.17815	0.10519465	0.07295535
581.72	0.178	0.105196648	0.072803352
581.76	0.1694	0.105198646	0.064201354
581.8	0.17266	0.105200644	0.067459356
581.84	0.16629	0.105202643	0.061087357
581.88	0.1641	0.105204641	0.058895359
581.92	0.16706	0.105206639	0.061853361
581.96	0.15937	0.105208637	0.054161363
582	0.15764	0.105210635	0.052429365
582.04	0.15723	0.105212634	0.052017366
582.08	0.15937	0.105214632	0.054155368
582.12	0.15921	0.10521663	0.05399337
582.16	0.15458	0.105218628	0.049361372
582.2	0.15346	0.105220626	0.048239374
582.24	0.14608	0.105222625	0.040857375
582.28	0.14684	0.105224623	0.041615377
582.32	0.1471	0.105226621	0.041873379
582.36	0.1361	0.105228619	0.030871381
582.4	0.13961	0.105230617	0.034379383
582.44	0.1359	0.105232615	0.030667385
582.48	0.13091	0.105234614	0.025675386
582.52	0.13091	0.105236612	0.025673388
582.56	0.12699	0.10523861	0.02175139
582.6	0.12714	0.105240608	0.021899392
582.64	0.12047	0.105242606	0.015227394
582.68	0.11568	0.105244605	0.010435395
582.72	0.11207	0.105246603	0.006823397
582.76	0.11599	0.105248601	0.010741399
582.8	0.11197	0.105250599	0.006719401
582.84	0.10652	0.105252597	0.001267403
582.88	0.10947	0.105254596	0.004215404
582.92	0.10932	0.105256594	0.004063406
582.96	0.1085	0.105258592	0.003241408
583	0.10183	0.10526059	-0.00343059
583.04	0.10474	0.105262588	-0.000522588
583.08	0.10107	0.105264586	-0.004194586
583.12	0.114	0.105266585	0.008733415
583.16	0.10927	0.105268583	0.004001417
583.2	0.10932	0.105270581	0.004049419
583.24	0.10642	0.105272579	0.001147421
583.28	0.11029	0.105274577	0.005015423
583.32	0.10458	0.105276576	-0.000696576
583.36	0.10453	0.105278574	-0.000748574
583.4	0.10479	0.105280572	-0.000490572
583.44	0.10387	0.10528257	-0.00141257
583.48	0.1026	0.105284568	-0.002684568
583.52	0.1028	0.105286567	-0.002486567
583.56	0.10555	0.105288565	0.000261435
583.6	0.10453	0.105290563	-0.000760563
583.64	0.10652	0.105292561	0.001227439
583.68	0.10545	0.105294559	0.000155441
583.72	0.10448	0.105296557	-0.000816557
583.76	0.1027	0.105298556	-0.002598556
583.8	0.1028	0.105300554	-0.002500554
583.84	0.11202	0.105302552	0.006717448
583.88	0.10285	0.10530455	-0.00245455
583.92	0.10759	0.105306548	0.002283452
583.96	0.10774	0.105308547	0.002431453
584	0.10749	0.105310545	0.002179455
584.04	0.11044	0.105312543	0.005127457
584.08	0.11034	0.105314541	0.005025459
584.12	0.11691	0.105316539	0.011593461
584.16	0.11512	0.105318538	0.009801462
584.2	0.11334	0.105320536	0.008019464
584.24	0.11563	0.105322534	0.010307466
584.28	0.11497	0.105324532	0.009645468
584.32	0.11772	0.10532653	0.01239347
584.36	0.11869	0.105328528	0.013361472
584.4	0.11884	0.105330527	0.013509473
584.44	0.12159	0.105332525	0.016257475
584.48	0.12358	0.105334523	0.018245477
584.52	0.12449	0.105336521	0.019153479
584.56	0.11772	0.105338519	0.012381481
584.6	0.12612	0.105340518	0.020779482
584.64	0.12515	0.105342516	0.019807484
584.68	0.12536	0.105344514	0.020015486
584.72	0.128	0.105346512	0.022653488
584.76	0.13208	0.10534851	0.02673149
584.8	0.1224	0.105350509	0.017049491
584.84	0.12352	0.105352507	0.018167493
584.88	0.13187	0.105354505	0.026515495
584.92	0.13315	0.105356503	0.027793497
584.96	0.13371	0.105358501	0.028351499
585	0.13386	0.1053605	0.028499501
585.04	0.13014	0.105362498	0.024777502
585.08	0.13208	0.105364496	0.026715504
585.12	0.13091	0.105366494	0.025543506
585.16	0.12902	0.105368492	0.023651508
585.2	0.12363	0.10537049	0.01825951
585.24	0.12449	0.105372489	0.019117511
585.28	0.12434	0.105374487	0.018965513
585.32	0.12251	0.105376485	0.017133515
585.36	0.11874	0.105378483	0.013361517
585.4	0.12251	0.105380481	0.017129519
585.44	0.11685	0.10538248	0.01146752
585.48	0.11884	0.105384478	0.013455522
585.52	0.11314	0.105386476	0.007753524
585.56	0.11293	0.105388474	0.007541526
585.6	0.11772	0.105390472	0.012329528
585.64	0.11584	0.105392471	0.010447529
585.68	0.11879	0.105394469	0.013395531
585.72	0.11502	0.105396467	0.009623533
585.76	0.11976	0.105398465	0.014361535
585.8	0.1083	0.105400463	0.002899537
585.84	0.10718	0.105402461	0.001777539
585.88	0.10728	0.10540446	0.00187554
585.92	0.10835	0.105406458	0.002943542
585.96	0.11293	0.105408456	0.007521544
586	0.11293	0.105410454	0.007519546
586.04	0.11085	0.105412452	0.005437548
586.08	0.11034	0.105414451	0.004925549
586.12	0.11589	0.105416449	0.010473551
586.16	0.11604	0.105418447	0.010621553
586.2	0.11487	0.105420445	0.009449555
586.24	0.11859	0.105422443	0.013167557
586.28	0.12159	0.105424442	0.016165558
586.32	0.12225	0.10542644	0.01682356
586.36	0.12245	0.105428438	0.017021562
586.4	0.13213	0.105430436	0.026699564
586.44	0.13218	0.105432434	0.026747566
586.48	0.13305	0.105434432	0.027615568
586.52	0.13391	0.105436431	0.028473569
586.56	0.14048	0.105438429	0.035041571
586.6	0.13503	0.105440427	0.029589573
586.64	0.15641	0.105442425	0.050967575
586.68	0.14735	0.105444423	0.041905577
586.72	0.14705	0.105446422	0.041603578
586.76	0.14705	0.10544842	0.04160158
586.8	0.15448	0.105450418	0.049029582
586.84	0.16212	0.105452416	0.056667584
586.88	0.16003	0.105454414	0.054575586
586.92	0.16298	0.105456413	0.057523587
586.96	0.16232	0.105458411	0.056861589
587	0.16018	0.105460409	0.054719591
587.04	0.16044	0.105462407	0.054977593
587.08	0.17143	0.105464405	0.065965595
587.12	0.17159	0.105466403	0.066123597
587.16	0.16695	0.105468402	0.061481598
587.2	0.16879	0.1054704	0.0633196
587.24	0.16945	0.105472398	0.063977602
587.28	0.16904	0.105474396	0.063565604
587.32	0.16695	0.105476394	0.061473606
587.36	0.167	0.105478393	0.061521607
587.4	0.16033	0.105480391	0.054849609
587.44	0.16003	0.105482389	0.054547611
587.48	0.15285	0.105484387	0.047365613
587.52	0.15733	0.105486385	0.051843615
587.56	0.15657	0.105488384	0.051081616
587.6	0.15652	0.105490382	0.051029618
587.64	0.15636	0.10549238	0.05086762
587.68	0.1638	0.105494378	0.058305622
587.72	0.14898	0.105496376	0.043483624
587.76	0.14302	0.105498374	0.037521626
587.8	0.14236	0.105500373	0.036859627
587.84	0.13564	0.105502371	0.030137629
587.88	0.12897	0.105504369	0.023465631
587.92	0.12907	0.105506367	0.023563633
587.96	0.13086	0.105508365	0.025351635
588	0.12093	0.105510364	0.015419636
588.04	0.12358	0.105512362	0.018067638
588.08	0.11787	0.10551436	0.01235564
588.12	0.11971	0.105516358	0.014193642
588.16	0.11971	0.105518356	0.014191644
588.2	0.11385	0.105520355	0.008329645
588.24	0.11395	0.105522353	0.008427647
588.28	0.11039	0.105524351	0.004865649
588.32	0.10912	0.105526349	0.003593651
588.36	0.1082	0.105528347	0.002671653
588.4	0.10453	0.105530345	-0.001000345
588.44	0.11288	0.105532344	0.007347656
588.48	0.1082	0.105534342	0.002665658
588.52	0.10845	0.10553634	0.00291366
588.56	0.10514	0.105538338	-0.000398338
588.6	0.10657	0.105540336	0.001029664
588.64	0.1112	0.105542335	0.005657665
588.68	0.10642	0.105544333	0.000875667
588.72	0.1083	0.105546331	0.002753669
588.76	0.1054	0.105548329	-0.000148329
588.8	0.1054	0.105550327	-0.000150327
588.84	0.10357	0.105552326	-0.001982326
588.88	0.10906	0.105554324	0.003505676
588.92	0.10367	0.105556322	-0.001886322
588.96	0.10922	0.10555832	0.00366168
589	0.11568	0.105560318	0.010119682
589.04	0.11701	0.105562316	0.011447684
589.08	0.11477	0.105564315	0.009205685
589.12	0.11492	0.105566313	0.009353687
589.16	0.11304	0.105568311	0.007471689
589.2	0.11889	0.105570309	0.013319691
589.24	0.12449	0.105572307	0.018917693
589.28	0.12347	0.105574306	0.017895694
589.32	0.12617	0.105576304	0.020593696
589.36	0.13096	0.105578302	0.025381698
589.4	0.13111	0.1055803	0.0255297
589.44	0.12719	0.105582298	0.021607702
589.48	0.12597	0.105584297	0.020385703
589.52	0.13218	0.105586295	0.026593705
589.56	0.13865	0.105588293	0.033061707
589.6	0.14231	0.105590291	0.036719709
589.64	0.14328	0.105592289	0.037687711
589.68	0.14511	0.105594287	0.039515713
589.72	0.14521	0.105596286	0.039613714
589.76	0.1443	0.105598284	0.038701716
589.8	0.14313	0.105600282	0.037529718
589.84	0.14862	0.10560228	0.04301772
589.88	0.15097	0.105604278	0.045365722
589.92	0.15443	0.105606277	0.048823723
589.96	0.15937	0.105608275	0.053761725
590	0.15932	0.105610273	0.053709727
590.04	0.14694	0.105612271	0.041327729
590.08	0.14929	0.105614269	0.043675731
590.12	0.1585	0.105616268	0.052883732
590.16	0.15479	0.105618266	0.049171734
590.2	0.15428	0.105620264	0.048659736
590.24	0.1613	0.105622262	0.055677738
590.28	0.16115	0.10562426	0.05552574
590.32	0.14409	0.105626259	0.038463741
590.36	0.14195	0.105628257	0.036321743
590.4	0.14888	0.105630255	0.043249745
590.44	0.14812	0.105632253	0.042487747
590.48	0.15255	0.105634251	0.046915749
590.52	0.14588	0.105636249	0.040243751
590.56	0.1472	0.105638248	0.041561752
590.6	0.1473	0.105640246	0.041659754
590.64	0.14705	0.105642244	0.041407756
590.68	0.13941	0.105644242	0.033765758
590.72	0.15117	0.10564624	0.04552376
590.76	0.13854	0.105648239	0.032891761
590.8	0.13305	0.105650237	0.027399763
590.84	0.13915	0.105652235	0.033497765
590.88	0.13931	0.105654233	0.033655767
590.92	0.13666	0.105656231	0.031003769
590.96	0.13203	0.10565823	0.02637177
591	0.1275	0.105660228	0.021839772
591.04	0.12821	0.105662226	0.022547774
591.08	0.12444	0.105664224	0.018775776
591.12	0.12851	0.105666222	0.022843778
591.16	0.12938	0.10566822	0.02371178
591.2	0.12923	0.105670219	0.023559781
591.24	0.12256	0.105672217	0.016887783
591.28	0.13198	0.105674215	0.026305785
591.32	0.12251	0.105676213	0.016833787
591.36	0.11772	0.105678211	0.012041789
591.4	0.12164	0.10568021	0.01595979
591.44	0.12235	0.105682208	0.016667792
591.48	0.12271	0.105684206	0.017025794
591.52	0.11915	0.105686204	0.013463796
591.56	0.12444	0.105688202	0.018751798
591.6	0.11874	0.105690201	0.013049799
591.64	0.11889	0.105692199	0.013197801
591.68	0.11772	0.105694197	0.012025803
591.72	0.11614	0.105696195	0.010443805
591.76	0.11584	0.105698193	0.010141807
591.8	0.1113	0.105700191	0.005599809
591.84	0.11808	0.10570219	0.01237781
591.88	0.1083	0.105704188	0.002595812
591.92	0.11874	0.105706186	0.013033814
591.96	0.10448	0.105708184	-0.001228184
592	0.10906	0.105710182	0.003349818
592.04	0.10942	0.105712181	0.003707819
592.08	0.10896	0.105714179	0.003245821
592.12	0.10932	0.105716177	0.003603823
592.16	0.10917	0.105718175	0.003451825
592.2	0.10749	0.105720173	0.001769827
592.24	0.10912	0.105722172	0.003397828
592.28	0.10662	0.10572417	0.00089583
592.32	0.10657	0.105726168	0.000843832
592.36	0.10652	0.105728166	0.000791834
592.4	0.10469	0.105730164	-0.001040164
592.44	0.1055	0.105732162	-0.000232162
592.48	0.1056	0.105734161	-0.000134161
592.52	0.10469	0.105736159	-0.001046159
592.56	0.1084	0.105738157	0.002661843
592.6	0.10759	0.105740155	0.001849845
592.64	0.10728	0.105742153	0.001537847
592.68	0.10738	0.105744152	0.001635848
592.72	0.10754	0.10574615	0.00179385
592.76	0.10377	0.105748148	-0.001978148
592.8	0.10764	0.105750146	0.001889854
592.84	0.10932	0.105752144	0.003567856
592.88	0.10545	0.105754143	-0.000304143
592.92	0.10835	0.105756141	0.002593859
592.96	0.10835	0.105758139	0.002591861
593	0.10738	0.105760137	0.001619863
593.04	0.10749	0.105762135	0.001727865
593.08	0.11003	0.105764133	0.004265867
593.12	0.11013	0.105766132	0.004363868
593.16	0.114	0.10576813	0.00823187
593.2	0.11314	0.105770128	0.007369872
593.24	0.11309	0.105772126	0.007317874
593.28	0.10947	0.105774124	0.003695876
593.32	0.11573	0.105776123	0.009953877
593.36	0.11986	0.105778121	0.014081879
593.4	0.11421	0.105780119	0.008429881
593.44	0.11217	0.105782117	0.006387883
593.48	0.11197	0.105784115	0.006185885
593.52	0.11298	0.105786114	0.007193886
593.56	0.11293	0.105788112	0.007141888
593.6	0.11502	0.10579011	0.00922989
593.64	0.11115	0.105792108	0.005357892
593.68	0.11029	0.105794106	0.004495894
593.72	0.11217	0.105796104	0.006373896
593.76	0.11212	0.105798103	0.006321897
593.8	0.11304	0.105800101	0.007239899
593.84	0.11319	0.105802099	0.007387901
593.88	0.11955	0.105804097	0.013745903
593.92	0.11227	0.105806095	0.006463905
593.96	0.11502	0.105808094	0.009211906
594	0.11115	0.105810092	0.005339908
594.04	0.11039	0.10581209	0.00457791
594.08	0.11049	0.105814088	0.004675912
594.12	0.11039	0.105816086	0.004573914
594.16	0.1112	0.105818085	0.005381915
594.2	0.11217	0.105820083	0.006349917
594.24	0.11421	0.105822081	0.008387919
594.28	0.11136	0.105824079	0.005535921
594.32	0.11024	0.105826077	0.004413923
594.36	0.1085	0.105828075	0.002671925
594.4	0.1027	0.105830074	-0.003130074
594.44	0.10301	0.105832072	-0.002822072
594.48	0.10377	0.10583407	-0.00206407
594.52	0.1112	0.105836068	0.005363932
594.56	0.10443	0.105838066	-0.001408066
594.6	0.10453	0.105840065	-0.001310065
594.64	0.10932	0.105842063	0.003477937
594.68	0.10942	0.105844061	0.003575939
594.72	0.10927	0.105846059	0.003423941
594.76	0.10652	0.105848057	0.000671943
594.8	0.1029	0.105850056	-0.002950056
594.84	0.10764	0.105852054	0.001787946
594.88	0.10387	0.105854052	-0.001984052
594.92	0.1054	0.10585605	-0.00045605
594.96	0.11115	0.105858048	0.005291952
595	0.1113	0.105860047	0.005439954
595.04	0.10362	0.105862045	-0.002242045
595.08	0.11024	0.105864043	0.004375957
595.12	0.10285	0.105866041	-0.003016041
595.16	0.1055	0.105868039	-0.000368039
595.2	0.11584	0.105870037	0.009969963
595.24	0.10835	0.105872036	0.002477964
595.28	0.1029	0.105874034	-0.002974034
595.32	0.10285	0.105876032	-0.003026032
595.36	0.1055	0.10587803	-0.00037803
595.4	0.10489	0.105880028	-0.000990028
595.44	0.11609	0.105882027	0.010207973
595.48	0.10942	0.105884025	0.003535975
595.52	0.11411	0.105886023	0.008223977
595.56	0.1167	0.105888021	0.010811979
595.6	0.1168	0.105890019	0.010909981
595.64	0.11507	0.105892018	0.009177982
595.68	0.11614	0.105894016	0.010245984
595.72	0.11416	0.105896014	0.008263986
595.76	0.11523	0.105898012	0.009331988
595.8	0.11614	0.10590001	0.01023999
595.84	0.11517	0.105902008	0.009267992
595.88	0.11792	0.105904007	0.012015993
595.92	0.11782	0.105906005	0.011913995
595.96	0.12067	0.105908003	0.014761997
596	0.11309	0.105910001	0.007179999
596.04	0.11604	0.105911999	0.010128001
596.08	0.11619	0.105913998	0.010276002
596.12	0.12256	0.105915996	0.016644004
596.16	0.12907	0.105917994	0.023152006
596.2	0.12918	0.105919992	0.023260008
596.24	0.11762	0.10592199	0.01169801
596.28	0.12744	0.105923989	0.021516011
596.32	0.13223	0.105925987	0.026304013
596.36	0.11685	0.105927985	0.010922015
596.4	0.12709	0.105929983	0.021160017
596.44	0.12729	0.105931981	0.021358019
596.48	0.12739	0.105933979	0.021456021
596.52	0.12454	0.105935978	0.018604022
596.56	0.12358	0.105937976	0.017642024
596.6	0.12363	0.105939974	0.017690026
596.64	0.12439	0.105941972	0.018448028
596.68	0.12337	0.10594397	0.01742603
596.72	0.13218	0.105945969	0.026234031
596.76	0.13014	0.105947967	0.024192033
596.8	0.12999	0.105949965	0.024040035
596.84	0.13498	0.105951963	0.029028037
596.88	0.13595	0.105953961	0.029996039
596.92	0.13493	0.10595596	0.02897404
596.96	0.13223	0.105957958	0.026272042
597	0.13406	0.105959956	0.028100044
597.04	0.13223	0.105961954	0.026268046
597.08	0.13203	0.105963952	0.026066048
597.12	0.13086	0.10596595	0.02489405
597.16	0.12923	0.105967949	0.023262051
597.2	0.13203	0.105969947	0.026060053
597.24	0.12062	0.105971945	0.014648055
597.28	0.13111	0.105973943	0.025136057
597.32	0.13753	0.105975941	0.031554059
597.36	0.12999	0.10597794	0.02401206
597.4	0.13035	0.105979938	0.024370062
597.44	0.12378	0.105981936	0.017798064
597.48	0.12612	0.105983934	0.020136066
597.52	0.12918	0.105985932	0.023194068
597.56	0.11981	0.105987931	0.013822069
597.6	0.12245	0.105989929	0.016460071
597.64	0.12724	0.105991927	0.021248073
597.68	0.12719	0.105993925	0.021196075
597.72	0.12342	0.105995923	0.017424077
597.76	0.13009	0.105997921	0.024092079
597.8	0.12429	0.10599992	0.01829008
597.84	0.12154	0.106001918	0.015538082
597.88	0.12327	0.106003916	0.017266084
597.92	0.12643	0.106005914	0.020424086
597.96	0.12643	0.106007912	0.020422088
598	0.11965	0.106009911	0.013640089
598.04	0.12627	0.106011909	0.020258091
598.08	0.11864	0.106013907	0.012626093
598.12	0.12358	0.106015905	0.017564095
598.16	0.11782	0.106017903	0.011802097
598.2	0.11889	0.106019902	0.012870098
598.24	0.1308	0.1060219	0.0247781
598.28	0.13116	0.106023898	0.025136102
598.32	0.12454	0.106025896	0.018514104
598.36	0.12251	0.106027894	0.016482106
598.4	0.11986	0.106029892	0.013830108
598.44	0.12531	0.106031891	0.019278109
598.48	0.12663	0.106033889	0.020596111
598.52	0.12256	0.106035887	0.016524113
598.56	0.12245	0.106037885	0.016412115
598.6	0.128	0.106039883	0.021960117
598.64	0.12266	0.106041882	0.016618118
598.68	0.12724	0.10604388	0.02119612
598.72	0.12897	0.106045878	0.022924122
598.76	0.12067	0.106047876	0.014622124
598.8	0.11879	0.106049874	0.012740126
598.84	0.11874	0.106051873	0.012688127
598.88	0.11696	0.106053871	0.010906129
598.92	0.12093	0.106055869	0.014874131
598.96	0.11685	0.106057867	0.010792133
599	0.11604	0.106059865	0.009980135
599.04	0.11502	0.106061863	0.008958137
599.08	0.11502	0.106063862	0.008956138
599.12	0.1222	0.10606586	0.01613414
599.16	0.12271	0.106067858	0.016642142
599.2	0.11609	0.106069856	0.010020144
599.24	0.1168	0.106071854	0.010728146
599.28	0.11772	0.106073853	0.011646147
599.32	0.11492	0.106075851	0.008844149
599.36	0.1083	0.106077849	0.002222151
599.4	0.11136	0.106079847	0.005280153
599.44	0.11095	0.106081845	0.004868155
599.48	0.1112	0.106083844	0.005116156
599.52	0.11472	0.106085842	0.008634158
599.56	0.10581	0.10608784	-0.00027784
599.6	0.11467	0.106089838	0.008580162
599.64	0.11115	0.106091836	0.005058164
599.68	0.11314	0.106093834	0.007046166
599.72	0.11212	0.106095833	0.006024167
599.76	0.11227	0.106097831	0.006172169
599.8	0.10448	0.106099829	-0.001619829
599.84	0.10392	0.106101827	-0.002181827
599.88	0.11609	0.106103825	0.009986175
599.92	0.10927	0.106105824	0.003164176
599.96	0.10621	0.106107822	0.000102178
600	0.10662	0.10610982	0.00051018
600.04	0.10632	0.106111818	0.000208182
600.08	0.10377	0.106113816	-0.002343816
600.12	0.11034	0.106115815	0.004224185
600.16	0.10525	0.106117813	-0.000867813
600.2	0.1055	0.106119811	-0.000619811
600.24	0.10352	0.106121809	-0.002601809
600.28	0.10545	0.106123807	-0.000673807
600.32	0.10565	0.106125806	-0.000475806
600.36	0.10199	0.106127804	-0.004137804
600.4	0.10535	0.106129802	-0.000779802
600.44	0.10657	0.1061318	0.0004382
600.48	0.10285	0.106133798	-0.003283798
600.52	0.10382	0.106135796	-0.002315796
600.56	0.10917	0.106137795	0.003032205
600.6	0.10458	0.106139793	-0.001559793
600.64	0.10458	0.106141791	-0.001561791
600.68	0.10733	0.106143789	0.001186211
600.72	0.1055	0.106145787	-0.000645787
600.76	0.11018	0.106147786	0.004032214
600.8	0.1027	0.106149784	-0.003449784
600.84	0.10168	0.106151782	-0.004471782
600.88	0.09929	0.10615378	-0.00686378
600.92	0.09914	0.106155778	-0.007015778
600.96	0.097	0.106157777	-0.009157777
601	0.10158	0.106159775	-0.004579775
601.04	0.10621	0.106161773	4.82271E-05
601.08	0.10469	0.106163771	-0.001473771
601.12	0.10194	0.106165769	-0.004225769
601.16	0.10469	0.106167767	-0.001477767
601.2	0.10469	0.106169766	-0.001479766
601.24	0.10525	0.106171764	-0.000921764
601.28	0.10728	0.106173762	0.001106238
601.32	0.10199	0.10617576	-0.00418576
601.36	0.1056	0.106177758	-0.000577758
601.4	0.10759	0.106179757	0.001410243
601.44	0.10845	0.106181755	0.002268245
601.48	0.10265	0.106183753	-0.003533753
601.52	0.10275	0.106185751	-0.003435751
601.56	0.10545	0.106187749	-0.000737749
601.6	0.11003	0.106189748	0.003840252
601.64	0.10754	0.106191746	0.001348254
601.68	0.10932	0.106193744	0.003126256
601.72	0.10657	0.106195742	0.000374258
601.76	0.10576	0.10619774	-0.00043774
601.8	0.1055	0.106199738	-0.000699738
601.84	0.10382	0.106201737	-0.002381737
601.88	0.10545	0.106203735	-0.000753735
601.92	0.1053	0.106205733	-0.000905733
601.96	0.10626	0.106207731	5.22688E-05
602	0.10087	0.106209729	-0.005339729
602.04	0.10453	0.106211728	-0.001681728
602.08	0.10555	0.106213726	-0.000663726
602.12	0.10581	0.106215724	-0.000405724
602.16	0.10632	0.106217722	0.000102278
602.2	0.10341	0.10621972	-0.00280972
602.24	0.1056	0.106221719	-0.000621719
602.28	0.10632	0.106223717	9.62833E-05
602.32	0.1082	0.106225715	0.001974285
602.36	0.10183	0.106227713	-0.004397713
602.4	0.10173	0.106229711	-0.004499711
602.44	0.11207	0.106231709	0.005838291
602.48	0.11115	0.106233708	0.004916292
602.52	0.11105	0.106235706	0.004814294
602.56	0.11197	0.106237704	0.005732296
602.6	0.10759	0.106239702	0.001350298
602.64	0.11411	0.1062417	0.0078683
602.68	0.1138	0.106243699	0.007556301
602.72	0.10632	0.106245697	7.43032E-05
602.76	0.10453	0.106247695	-0.001717695
602.8	0.10728	0.106249693	0.001030307
602.84	0.10906	0.106251691	0.002808309
602.88	0.11034	0.10625369	0.00408631
602.92	0.11202	0.106255688	0.005764312
602.96	0.10769	0.106257686	0.001432314
603	0.10749	0.106259684	0.001230316
603.04	0.10744	0.106261682	0.001178318
603.08	0.1112	0.10626368	0.00493632
603.12	0.10906	0.106265679	0.002794321
603.16	0.11008	0.106267677	0.003812323
603.2	0.1112	0.106269675	0.004930325
603.24	0.1056	0.106271673	-0.000671673
603.28	0.1055	0.106273671	-0.000773671
603.32	0.11416	0.10627567	0.00788433
603.36	0.11212	0.106277668	0.005842332
603.4	0.10738	0.106279666	0.001100334
603.44	0.11029	0.106281664	0.004008336
603.48	0.11685	0.106283662	0.010566338
603.52	0.10738	0.106285661	0.001094339
603.56	0.10744	0.106287659	0.001152341
603.6	0.11212	0.106289657	0.005830343
603.64	0.10733	0.106291655	0.001038345
603.68	0.11034	0.106293653	0.004046347
603.72	0.10448	0.106295651	-0.001815651
603.76	0.10744	0.10629765	0.00114235
603.8	0.11202	0.106299648	0.005720352
603.84	0.10927	0.106301646	0.002968354
603.88	0.10906	0.106303644	0.002756356
603.92	0.10367	0.106305642	-0.002635642
603.96	0.10744	0.106307641	0.001132359
604	0.11227	0.106309639	0.005960361
604.04	0.11405	0.106311637	0.007738363
604.08	0.11624	0.106313635	0.009926365
604.12	0.11309	0.106315633	0.006774367
604.16	0.11329	0.106317632	0.006972368
604.2	0.10718	0.10631963	0.00086037
604.24	0.1083	0.106321628	0.001978372
604.28	0.10535	0.106323626	-0.000973626
604.32	0.111	0.106325624	0.004674376
604.36	0.11049	0.106327622	0.004162378
604.4	0.11395	0.106329621	0.007620379
604.44	0.10448	0.106331619	-0.001851619
604.48	0.10453	0.106333617	-0.001803617
604.52	0.10662	0.106335615	0.000284385
604.56	0.10942	0.106337613	0.003082387
604.6	0.10733	0.106339612	0.000990388
604.64	0.11202	0.10634161	0.00567839
604.68	0.11411	0.106343608	0.007766392
604.72	0.10469	0.106345606	-0.001655606
604.76	0.10438	0.106347604	-0.001967604
604.8	0.11227	0.106349603	0.005920397
604.84	0.10066	0.106351601	-0.005691601
604.88	0.10637	0.106353599	1.64011E-05
604.92	0.11105	0.106355597	0.004694403
604.96	0.11018	0.106357595	0.003822405
605	0.10469	0.106359594	-0.001669594
605.04	0.10464	0.106361592	-0.001721592
605.08	0.10087	0.10636359	-0.00549359
605.12	0.10738	0.106365588	0.001014412
605.16	0.10825	0.106367586	0.001882414
605.2	0.10642	0.106369584	5.04156E-05
605.24	0.1082	0.106371583	0.001828417
605.28	0.10738	0.106373581	0.001006419
605.32	0.10453	0.106375579	-0.001845579
605.36	0.10448	0.106377577	-0.001897577
605.4	0.10733	0.106379575	0.000950425
605.44	0.10189	0.106381574	-0.004491574
605.48	0.10708	0.106383572	0.000696428
605.52	0.10744	0.10638557	0.00105443
605.56	0.1056	0.106387568	-0.000787568
605.6	0.10285	0.106389566	-0.003539566
605.64	0.10301	0.106391565	-0.003381565
605.68	0.10275	0.106393563	-0.003643563
605.72	0.11115	0.106395561	0.004754439
605.76	0.10749	0.106397559	0.001092441
605.8	0.11492	0.106399557	0.008520443
605.84	0.10815	0.106401555	0.001748445
605.88	0.10464	0.106403554	-0.001763554
605.92	0.10071	0.106405552	-0.005695552
605.96	0.10082	0.10640755	-0.00558755
606	0.11212	0.106409548	0.005710452
606.04	0.10448	0.106411546	-0.001931546
606.08	0.1084	0.106413545	0.001986455
606.12	0.11792	0.106415543	0.011504457
606.16	0.1057	0.106417541	-0.000717541
606.2	0.11772	0.106419539	0.011300461
606.24	0.11777	0.106421537	0.011348463
606.28	0.1084	0.106423536	0.001976464
606.32	0.1082	0.106425534	0.001774466
606.36	0.11787	0.106427532	0.011442468
606.4	0.11971	0.10642953	0.01328047
606.44	0.11497	0.106431528	0.008538472
606.48	0.11803	0.106433526	0.011596474
606.52	0.11777	0.106435525	0.011334475
606.56	0.11976	0.106437523	0.013322477
606.6	0.12077	0.106439521	0.014330479
606.64	0.12347	0.106441519	0.017028481
606.68	0.12515	0.106443517	0.018706483
606.72	0.13203	0.106445516	0.025584484
606.76	0.12816	0.106447514	0.021712486
606.8	0.12912	0.106449512	0.022670488
606.84	0.12928	0.10645151	0.02282849
606.88	0.12739	0.106453508	0.020936492
606.92	0.12734	0.106455507	0.020884493
606.96	0.12342	0.106457505	0.016962495
607	0.12724	0.106459503	0.020780497
607.04	0.13014	0.106461501	0.023678499
607.08	0.13294	0.106463499	0.026476501
607.12	0.13284	0.106465497	0.026374503
607.16	0.12627	0.106467496	0.019802504
607.2	0.12139	0.106469494	0.014920506
607.24	0.12816	0.106471492	0.021688508
607.28	0.12841	0.10647349	0.02193651
607.32	0.12149	0.106475488	0.015014512
607.36	0.12918	0.106477487	0.022702513
607.4	0.12923	0.106479485	0.022750515
607.44	0.12169	0.106481483	0.015208517
607.48	0.12159	0.106483481	0.015106519
607.52	0.11981	0.106485479	0.013324521
607.56	0.12077	0.106487478	0.014282522
607.6	0.11965	0.106489476	0.013160524
607.64	0.11792	0.106491474	0.011428526
607.68	0.11288	0.106493472	0.006386528
607.72	0.11293	0.10649547	0.00643453
607.76	0.11125	0.106497468	0.004752532
607.8	0.12088	0.106499467	0.014380533
607.84	0.11044	0.106501465	0.003938535
607.88	0.11599	0.106503463	0.009486537
607.92	0.10942	0.106505461	0.002914539
607.96	0.1055	0.106507459	-0.001007459
608	0.10565	0.106509458	-0.000859458
608.04	0.10723	0.106511456	0.000718544
608.08	0.10458	0.106513454	-0.001933454
608.12	0.10458	0.106515452	-0.001935452
608.16	0.10744	0.10651745	0.00092255
608.2	0.10835	0.106519449	0.001830551
608.24	0.10754	0.106521447	0.001018553
608.28	0.10173	0.106523445	-0.004793445
608.32	0.10194	0.106525443	-0.004585443
608.36	0.10906	0.106527441	0.002532559
608.4	0.10688	0.106529439	0.000350561
608.44	0.1082	0.106531438	0.001668562
608.48	0.11298	0.106533436	0.006446564
608.52	0.10912	0.106535434	0.002584566
608.56	0.10637	0.106537432	-0.000167432
608.6	0.10642	0.10653943	-0.00011943
608.64	0.11044	0.106541429	0.003898571
608.68	0.10733	0.106543427	0.000786573
608.72	0.10647	0.106545425	-7.5425E-05
608.76	0.10448	0.106547423	-0.002067423
608.8	0.11141	0.106549421	0.004860579
608.84	0.10749	0.10655142	0.00093858
608.88	0.10738	0.106553418	0.000826582
608.92	0.10163	0.106555416	-0.004925416
608.96	0.10621	0.106557414	-0.000347414
609	0.11192	0.106559412	0.005360588
609.04	0.10453	0.10656141	-0.00203141
609.08	0.11395	0.106563409	0.007386591
609.12	0.10754	0.106565407	0.000974593
609.16	0.11716	0.106567405	0.010592595
609.2	0.1168	0.106569403	0.010230597
609.24	0.10555	0.106571401	-0.001021401
609.28	0.11227	0.1065734	0.0056966
609.32	0.11411	0.106575398	0.007534602
609.36	0.11013	0.106577396	0.003552604
609.4	0.11024	0.106579394	0.003660606
609.44	0.11696	0.106581392	0.010378608
609.48	0.1168	0.106583391	0.010216609
609.52	0.10464	0.106585389	-0.001945389
609.56	0.11115	0.106587387	0.004562613
609.6	0.10535	0.106589385	-0.001239385
609.64	0.10718	0.106591383	0.000588617
609.68	0.10178	0.106593381	-0.004813381
609.72	0.10652	0.10659538	-7.53797E-05
609.76	0.10626	0.106597378	-0.000337378
609.8	0.11202	0.106599376	0.005420624
609.84	0.10749	0.106601374	0.000888626
609.88	0.11298	0.106603372	0.006376628
609.92	0.10754	0.106605371	0.000934629
609.96	0.10148	0.106607369	-0.005127369
610	0.10382	0.106609367	-0.002789367
610.04	0.1083	0.106611365	0.001688635
610.08	0.1082	0.106613363	0.001586637
610.12	0.10626	0.106615362	-0.000355362
610.16	0.11604	0.10661736	0.00942264
610.2	0.10387	0.106619358	-0.002749358
610.24	0.1083	0.106621356	0.001678644
610.28	0.10306	0.106623354	-0.003563354
610.32	0.10815	0.106625353	0.001524647
610.36	0.10835	0.106627351	0.001722649
610.4	0.10372	0.106629349	-0.002909349
610.44	0.10367	0.106631347	-0.002961347
610.48	0.10637	0.106633345	-0.000263345
610.52	0.1056	0.106635343	-0.001035343
610.56	0.10555	0.106637342	-0.001087342
610.6	0.1084	0.10663934	0.00176066
610.64	0.10194	0.106641338	-0.004701338
610.68	0.10173	0.106643336	-0.004913336
610.72	0.10937	0.106645334	0.002724666
610.76	0.11024	0.106647333	0.003592667
610.8	0.1055	0.106649331	-0.001149331
610.84	0.11034	0.106651329	0.003688671
610.88	0.11385	0.106653327	0.007196673
610.92	0.11497	0.106655325	0.008314675
610.96	0.11507	0.106657324	0.008412676
611	0.1083	0.106659322	0.001640678
611.04	0.11197	0.10666132	0.00530868
611.08	0.11594	0.106663318	0.009276682
611.12	0.11008	0.106665316	0.003414684
611.16	0.11034	0.106667314	0.003672686
611.2	0.11614	0.106669313	0.009470687
611.24	0.11619	0.106671311	0.009518689
611.28	0.12093	0.106673309	0.014256691
611.32	0.11991	0.106675307	0.013234693
611.36	0.11614	0.106677305	0.009462695
611.4	0.12536	0.106679304	0.018680696
611.44	0.11298	0.106681302	0.006298698
611.48	0.11685	0.1066833	0.0101667
611.52	0.11395	0.106685298	0.007264702
611.56	0.11395	0.106687296	0.007262704
611.6	0.1195	0.106689295	0.012810705
611.64	0.10988	0.106691293	0.003188707
611.68	0.1112	0.106693291	0.004506709
611.72	0.11874	0.106695289	0.012044711
611.76	0.11304	0.106697287	0.006342713
611.8	0.11604	0.106699285	0.009340715
611.84	0.11594	0.106701284	0.009238716
611.88	0.11024	0.106703282	0.003536718
611.92	0.1138	0.10670528	0.00709472
611.96	0.11787	0.106707278	0.011162722
612	0.11405	0.106709276	0.007340724
612.04	0.10912	0.106711275	0.002408725
612.08	0.10912	0.106713273	0.002406727
612.12	0.11385	0.106715271	0.007134729
612.16	0.11395	0.106717269	0.007232731
612.2	0.10275	0.106719267	-0.003969267
612.24	0.11115	0.106721266	0.004428734
612.28	0.11008	0.106723264	0.003356736
612.32	0.11024	0.106725262	0.003514738
612.36	0.1055	0.10672726	-0.00122726
612.4	0.10642	0.106729258	-0.000309258
612.44	0.10621	0.106731256	-0.000521256
612.48	0.11013	0.106733255	0.003396745
612.52	0.10545	0.106735253	-0.001285253
612.56	0.10927	0.106737251	0.002532749
612.6	0.10667	0.106739249	-6.92492E-05
612.64	0.1027	0.106741247	-0.004041247
612.68	0.10469	0.106743246	-0.002053246
612.72	0.10428	0.106745244	-0.002465244
612.76	0.10662	0.106747242	-0.000127242
612.8	0.10555	0.10674924	-0.00119924
612.84	0.10759	0.106751238	0.000838762
612.88	0.1027	0.106753237	-0.004053237
612.92	0.1084	0.106755235	0.001644765
612.96	0.10749	0.106757233	0.000732767
613	0.10657	0.106759231	-0.000189231
613.04	0.10637	0.106761229	-0.000391229
613.08	0.10367	0.106763227	-0.003093227
613.12	0.10779	0.106765226	0.001024774
613.16	0.11146	0.106767224	0.004692776
613.2	0.10464	0.106769222	-0.002129222
613.24	0.10632	0.10677122	-0.00045122
613.28	0.10657	0.106773218	-0.000203218
613.32	0.10657	0.106775217	-0.000205217
613.36	0.1054	0.106777215	-0.001377215
613.4	0.1055	0.106779213	-0.001279213
613.44	0.10392	0.106781211	-0.002861211
613.48	0.11298	0.106783209	0.006196791
613.52	0.10749	0.106785208	0.000704792
613.56	0.10199	0.106787206	-0.004797206
613.6	0.10168	0.106789204	-0.005109204
613.64	0.10626	0.106791202	-0.000531202
613.68	0.1136	0.1067932	0.0068068
613.72	0.11115	0.106795198	0.004354802
613.76	0.10514	0.106797197	-0.001657197
613.8	0.10754	0.106799195	0.000740805
613.84	0.10382	0.106801193	-0.002981193
613.88	0.10448	0.106803191	-0.002323191
613.92	0.10464	0.106805189	-0.002165189
613.96	0.11018	0.106807188	0.003372812
614	0.10932	0.106809186	0.002510814
614.04	0.1054	0.106811184	-0.001411184
614.08	0.11008	0.106813182	0.003266818
614.12	0.10652	0.10681518	-0.00029518
614.16	0.11421	0.106817179	0.007392821
614.2	0.11411	0.106819177	0.007290823
614.24	0.10728	0.106821175	0.000458825
614.28	0.10901	0.106823173	0.002186827
614.32	0.1029	0.106825171	-0.003925171
614.36	0.10917	0.106827169	0.002342831
614.4	0.10015	0.106829168	-0.006679168
614.44	0.11024	0.106831166	0.003408834
614.48	0.10835	0.106833164	0.001516836
614.52	0.108	0.106835162	0.001164838
614.56	0.10749	0.10683716	0.00065284
614.6	0.1081	0.106839159	0.001260841
614.64	0.10352	0.106841157	-0.003321157
614.68	0.11283	0.106843155	0.005986845
614.72	0.10901	0.106845153	0.002164847
614.76	0.10749	0.106847151	0.000642849
614.8	0.10733	0.10684915	0.00048085
614.84	0.11136	0.106851148	0.004508852
614.88	0.10744	0.106853146	0.000586854
614.92	0.11049	0.106855144	0.003634856
614.96	0.10754	0.106857142	0.000682858
615	0.11497	0.106859141	0.00811086
615.04	0.10397	0.106861139	-0.002891139
615.08	0.10367	0.106863137	-0.003193137
615.12	0.10183	0.106865135	-0.005035135
615.16	0.09893	0.106867133	-0.007937133
615.2	0.10922	0.106869131	0.002350869
615.24	0.10937	0.10687113	0.00249887
615.28	0.114	0.106873128	0.007126872
615.32	0.10922	0.106875126	0.002344874
615.36	0.1029	0.106877124	-0.003977124
615.4	0.10285	0.106879122	-0.004029122
615.44	0.11049	0.106881121	0.003608879
615.48	0.10377	0.106883119	-0.003113119
615.52	0.10749	0.106885117	0.000604883
615.56	0.11304	0.106887115	0.006152885
615.6	0.10632	0.106889113	-0.000569113
615.64	0.10443	0.106891112	-0.002461112
615.68	0.10438	0.10689311	-0.00251311
615.72	0.10173	0.106895108	-0.005165108
615.76	0.10932	0.106897106	0.002422894
615.8	0.10825	0.106899104	0.001350896
615.84	0.1025	0.106901102	-0.004401102
615.88	0.10759	0.106903101	0.000686899
615.92	0.10367	0.106905099	-0.003235099
615.96	0.10331	0.106907097	-0.003597097
616	0.10448	0.106909095	-0.002429095
616.04	0.1	0.106911093	-0.006911093
616.08	0.10952	0.106913092	0.002606908
616.12	0.10275	0.10691509	-0.00416509
616.16	0.11217	0.106917088	0.005252912
616.2	0.11095	0.106919086	0.004030914
616.24	0.1054	0.106921084	-0.001521084
616.28	0.1057	0.106923083	-0.001223083
616.32	0.10652	0.106925081	-0.000405081
616.36	0.10606	0.106927079	-0.000867079
616.4	0.11222	0.106929077	0.005290923
616.44	0.10835	0.106931075	0.001418925
616.48	0.10845	0.106933073	0.001516927
616.52	0.11136	0.106935072	0.004424928
616.56	0.1112	0.10693707	0.00426293
616.6	0.10912	0.106939068	0.002180932
616.64	0.10555	0.106941066	-0.001391066
616.68	0.10642	0.106943064	-0.000523064
616.72	0.10947	0.106945063	0.002524937
616.76	0.10077	0.106947061	-0.006177061
616.8	0.11314	0.106949059	0.006190941
616.84	0.11049	0.106951057	0.003538943
616.88	0.11029	0.106953055	0.003336945
616.92	0.10647	0.106955054	-0.000485054
616.96	0.1111	0.106957052	0.004142948
617	0.11115	0.10695905	0.00419095
617.04	0.1084	0.106961048	0.001438952
617.08	0.11492	0.106963046	0.007956954
617.12	0.11792	0.106965044	0.010954956
617.16	0.11782	0.106967043	0.010852957
617.2	0.11986	0.106969041	0.012890959
617.24	0.12454	0.106971039	0.017568961
617.28	0.12052	0.106973037	0.013546963
617.32	0.11573	0.106975035	0.008754965
617.36	0.11421	0.106977034	0.007232966
617.4	0.11777	0.106979032	0.010790968
617.44	0.11772	0.10698103	0.01073897
617.48	0.11869	0.106983028	0.011706972
617.52	0.12928	0.106985026	0.022294974
617.56	0.13559	0.106987025	0.028602975
617.6	0.13126	0.106989023	0.024270977
617.64	0.13213	0.106991021	0.025138979
617.68	0.13559	0.106993019	0.028596981
617.72	0.14608	0.106995017	0.039084983
617.76	0.14582	0.106997015	0.038822985
617.8	0.1498	0.106999014	0.042800986
617.84	0.15555	0.107001012	0.048548988
617.88	0.15911	0.10700301	0.05210699
617.92	0.15738	0.107005008	0.050374992
617.96	0.16609	0.107007006	0.059082994
618	0.16884	0.107009005	0.061830995
618.04	0.16884	0.107011003	0.061828997
618.08	0.17535	0.107013001	0.068336999
618.12	0.17556	0.107014999	0.068545001
618.16	0.17714	0.107016997	0.070123003
618.2	0.1865	0.107018996	0.079481004
618.24	0.186	0.107020994	0.078979006
618.28	0.18381	0.107022992	0.076787008
618.32	0.18355	0.10702499	0.07652501
618.36	0.17429	0.107026988	0.067263012
618.4	0.18019	0.107028986	0.073161014
618.44	0.17815	0.107030985	0.071119015
618.48	0.18386	0.107032983	0.076827017
618.52	0.17887	0.107034981	0.071835019
618.56	0.18503	0.107036979	0.077993021
618.6	0.16894	0.107038977	0.061901023
618.64	0.16879	0.107040976	0.061749024
618.68	0.16782	0.107042974	0.060777026
618.72	0.16293	0.107044972	0.055885028
618.76	0.16599	0.10704697	0.05894303
618.8	0.15382	0.107048968	0.046771032
618.84	0.15188	0.107050967	0.044829033
618.88	0.14313	0.107052965	0.036077035
618.92	0.14328	0.107054963	0.036225037
618.96	0.13391	0.107056961	0.026853039
619	0.13946	0.107058959	0.032401041
619.04	0.13503	0.107060957	0.027969043
619.08	0.13503	0.107062956	0.027967044
619.12	0.12739	0.107064954	0.020325046
619.16	0.12164	0.107066952	0.014573048
619.2	0.11599	0.10706895	0.00892105
619.24	0.11584	0.107070948	0.008769052
619.28	0.11405	0.107072947	0.006977053
619.32	0.11487	0.107074945	0.007795055
619.36	0.10901	0.107076943	0.001933057
619.4	0.10901	0.107078941	0.001931059
619.44	0.11604	0.107080939	0.008959061
619.48	0.11044	0.107082938	0.003357062
619.52	0.11024	0.107084936	0.003155064
619.56	0.10565	0.107086934	-0.001436934
619.6	0.10525	0.107088932	-0.001838932
619.64	0.10932	0.10709093	0.00222907
619.68	0.10474	0.107092928	-0.002352928
619.72	0.1085	0.107094927	0.001405073
619.76	0.1054	0.107096925	-0.001696925
619.8	0.10525	0.107098923	-0.001848923
619.84	0.10917	0.107100921	0.002069079
619.88	0.11003	0.107102919	0.002927081
619.92	0.10728	0.107104918	0.000175082
619.96	0.1056	0.107106916	-0.001506916
620	0.10647	0.107108914	-0.000638914
620.04	0.10632	0.107110912	-0.000790912
620.08	0.11242	0.10711291	0.00530709
620.12	0.11232	0.107114909	0.005205091
620.16	0.11034	0.107116907	0.003223093
620.2	0.11309	0.107118905	0.005971095
620.24	0.1111	0.107120903	0.003979097
620.28	0.11024	0.107122901	0.003117099
620.32	0.1138	0.1071249	0.0066751
620.36	0.10815	0.107126898	0.001023102
620.4	0.10825	0.107128896	0.001121104
620.44	0.11293	0.107130894	0.005799106
620.48	0.1084	0.107132892	0.001267108
620.52	0.12057	0.10713489	0.01343511
620.56	0.11482	0.107136889	0.007683111
620.6	0.11309	0.107138887	0.005951113
620.64	0.11207	0.107140885	0.004929115
620.68	0.11889	0.107142883	0.011747117
620.72	0.11874	0.107144881	0.011595119
620.76	0.11329	0.10714688	0.00614312
620.8	0.11034	0.107148878	0.003191122
620.84	0.11563	0.107150876	0.008479124
620.88	0.12072	0.107152874	0.013567126
620.92	0.11512	0.107154872	0.007965128
620.96	0.12337	0.107156871	0.016213129
621	0.12332	0.107158869	0.016161131
621.04	0.11772	0.107160867	0.010559133
621.08	0.11792	0.107162865	0.010757135
621.12	0.11594	0.107164863	0.008775137
621.16	0.11614	0.107166861	0.008973139
621.2	0.12526	0.10716886	0.01809114
621.24	0.12154	0.107170858	0.014369142
621.28	0.12133	0.107172856	0.014157144
621.32	0.11685	0.107174854	0.009675146
621.36	0.11986	0.107176852	0.012683148
621.4	0.11981	0.107178851	0.012631149
621.44	0.12526	0.107180849	0.018079151
621.48	0.12429	0.107182847	0.017107153
621.52	0.12602	0.107184845	0.018835155
621.56	0.13101	0.107186843	0.023823157
621.6	0.13111	0.107188842	0.023921158
621.64	0.13182	0.10719084	0.02462916
621.68	0.1303	0.107192838	0.023107162
621.72	0.13951	0.107194836	0.032315164
621.76	0.14725	0.107196834	0.040053166
621.8	0.15346	0.107198832	0.046261168
621.84	0.14776	0.107200831	0.040559169
621.88	0.14822	0.107202829	0.041017171
621.92	0.14812	0.107204827	0.040915173
621.96	0.14521	0.107206825	0.038003175
622	0.15529	0.107208823	0.048081177
622.04	0.17128	0.107210822	0.064069178
622.08	0.17143	0.10721282	0.06421718
622.12	0.16502	0.107214818	0.057805182
622.16	0.16522	0.107216816	0.058003184
622.2	0.167	0.107218814	0.059781186
622.24	0.16716	0.107220813	0.059939187
622.28	0.18202	0.107222811	0.074797189
622.32	0.17317	0.107224809	0.065945191
622.36	0.17551	0.107226807	0.068283193
622.4	0.17342	0.107228805	0.066191195
622.44	0.17235	0.107230803	0.065119197
622.48	0.17261	0.107232802	0.065377198
622.52	0.17042	0.1072348	0.0631852
622.56	0.1722	0.107236798	0.064963202
622.6	0.16874	0.107238796	0.061501204
622.64	0.15738	0.107240794	0.050139206
622.68	0.17352	0.107242793	0.066277207
622.72	0.16492	0.107244791	0.057675209
622.76	0.16492	0.107246789	0.057673211
622.8	0.167	0.107248787	0.059751213
622.84	0.16033	0.107250785	0.053079215
622.88	0.15535	0.107252784	0.048097216
622.92	0.15453	0.107254782	0.047275218
622.96	0.15367	0.10725678	0.04641322
623	0.13936	0.107258778	0.032101222
623.04	0.14414	0.107260776	0.036879224
623.08	0.14414	0.107262774	0.036877226
623.12	0.12724	0.107264773	0.019975227
623.16	0.13386	0.107266771	0.026593229
623.2	0.12816	0.107268769	0.020891231
623.24	0.11675	0.107270767	0.009479233
623.28	0.12358	0.107272765	0.016307235
623.32	0.12245	0.107274764	0.015175236
623.36	0.1224	0.107276762	0.015123238
623.4	0.11981	0.10727876	0.01253124
623.44	0.11421	0.107280758	0.006929242
623.48	0.11685	0.107282756	0.009567244
623.52	0.11782	0.107284755	0.010535245
623.56	0.11619	0.107286753	0.008903247
623.6	0.11237	0.107288751	0.005081249
623.64	0.11202	0.107290749	0.004729251
623.68	0.11324	0.107292747	0.005947253
623.72	0.11691	0.107294745	0.009615255
623.76	0.11864	0.107296744	0.011343256
623.8	0.10759	0.107298742	0.000291258
623.84	0.11416	0.10730074	0.00685926
623.88	0.1054	0.107302738	-0.001902738
623.92	0.10927	0.107304736	0.001965264
623.96	0.10917	0.107306735	0.001863265
624	0.10835	0.107308733	0.001041267
624.04	0.11517	0.107310731	0.007859269
624.08	0.11024	0.107312729	0.002927271
624.12	0.10469	0.107314727	-0.002624727
624.16	0.10637	0.107316726	-0.000946726
624.2	0.10759	0.107318724	0.000271276
624.24	0.10769	0.107320722	0.000369278
624.28	0.10545	0.10732272	-0.00187272
624.32	0.11298	0.107324718	0.005655282
624.36	0.1109	0.107326716	0.003573284
624.4	0.11018	0.107328715	0.002851285
624.44	0.10744	0.107330713	0.000109287
624.48	0.11105	0.107332711	0.003717289
624.52	0.11115	0.107334709	0.003815291
624.56	0.11304	0.107336707	0.005703293
624.6	0.1111	0.107338706	0.003761294
624.64	0.1085	0.107340704	0.001159296
624.68	0.11207	0.107342702	0.004727298
624.72	0.11095	0.1073447	0.0036053
624.76	0.10835	0.107346698	0.001003302
624.8	0.10581	0.107348697	-0.001538697
624.84	0.10576	0.107350695	-0.001590695
624.88	0.11431	0.107352693	0.006957307
624.92	0.10835	0.107354691	0.000995309
624.96	0.11018	0.107356689	0.002823311
625	0.1054	0.107358688	-0.001958688
625.04	0.10835	0.107360686	0.000989314
625.08	0.11324	0.107362684	0.005877316
625.12	0.11263	0.107364682	0.005265318
625.16	0.11232	0.10736668	0.00495332
625.2	0.10382	0.107368678	-0.003548678
625.24	0.1054	0.107370677	-0.001970677
625.28	0.10555	0.107372675	-0.001822675
625.32	0.10616	0.107374673	-0.001214673
625.36	0.10942	0.107376671	0.002043329
625.4	0.11202	0.107378669	0.004641331
625.44	0.11222	0.107380668	0.004839332
625.48	0.1139	0.107382666	0.006517334
625.52	0.11777	0.107384664	0.010385336
625.56	0.1082	0.107386662	0.000813338
625.6	0.11492	0.10738866	0.00753134
625.64	0.11472	0.107390659	0.007329341
625.68	0.11202	0.107392657	0.004627343
625.72	0.11217	0.107394655	0.004775345
625.76	0.10565	0.107396653	-0.001746653
625.8	0.10845	0.107398651	0.001051349
625.84	0.1027	0.107400649	-0.004700649
625.88	0.10464	0.107402648	-0.002762648
625.92	0.10626	0.107404646	-0.001144646
625.96	0.1082	0.107406644	0.000793356
626	0.1084	0.107408642	0.000991358
626.04	0.11217	0.10741064	0.00475936
626.08	0.10626	0.107412639	-0.001152639
626.12	0.11217	0.107414637	0.004755363
626.16	0.10514	0.107416635	-0.002276635
626.2	0.10942	0.107418633	0.002001367
626.24	0.10764	0.107420631	0.000219369
626.28	0.11029	0.10742263	0.00286737
626.32	0.11049	0.107424628	0.003065372
626.36	0.11202	0.107426626	0.004593374
626.4	0.11309	0.107428624	0.005661376
626.44	0.11013	0.107430622	0.002699378
626.48	0.1084	0.10743262	0.00096738
626.52	0.11273	0.107434619	0.005295381
626.56	0.11125	0.107436617	0.003813383
626.6	0.11125	0.107438615	0.003811385
626.64	0.11034	0.107440613	0.002899387
626.68	0.10657	0.107442611	-0.000872611
626.72	0.10637	0.10744461	-0.00107461
626.76	0.11467	0.107446608	0.007223392
626.8	0.11049	0.107448606	0.003041394
626.84	0.11003	0.107450604	0.002579396
626.88	0.11395	0.107452602	0.006497398
626.92	0.114	0.107454601	0.006545399
626.96	0.11517	0.107456599	0.007713401
627	0.11467	0.107458597	0.007211403
627.04	0.11599	0.107460595	0.008529405
627.08	0.1168	0.107462593	0.009337407
627.12	0.11797	0.107464591	0.010505409
627.16	0.10912	0.10746659	0.00165341
627.2	0.10896	0.107468588	0.001491412
627.24	0.11115	0.107470586	0.003679414
627.28	0.11125	0.107472584	0.003777416
627.32	0.10183	0.107474582	-0.005644582
627.36	0.12256	0.107476581	0.015083419
627.4	0.11884	0.107478579	0.011361421
627.44	0.11309	0.107480577	0.005609423
627.48	0.11324	0.107482575	0.005757425
627.52	0.11039	0.107484573	0.002905427
627.56	0.11492	0.107486572	0.007433428
627.6	0.11304	0.10748857	0.00555143
627.64	0.11207	0.107490568	0.004579432
627.68	0.11971	0.107492566	0.012217434
627.72	0.12088	0.107494564	0.013385436
627.76	0.12179	0.107496562	0.014293438
627.8	0.12164	0.107498561	0.014141439
627.84	0.11823	0.107500559	0.010729441
627.88	0.12062	0.107502557	0.013117443
627.92	0.12368	0.107504555	0.016175445
627.96	0.11691	0.107506553	0.009403447
628	0.11869	0.107508552	0.011181448
628.04	0.12215	0.10751055	0.01463945
628.08	0.12271	0.107512548	0.015197452
628.12	0.12047	0.107514546	0.012955454
628.16	0.13014	0.107516544	0.022623456
628.2	0.12999	0.107518543	0.022471457
628.24	0.13014	0.107520541	0.022619459
628.28	0.12653	0.107522539	0.019007461
628.32	0.12251	0.107524537	0.014985463
628.36	0.1223	0.107526535	0.014773465
628.4	0.13014	0.107528533	0.022611467
628.44	0.13391	0.107530532	0.026379468
628.48	0.13238	0.10753253	0.02484747
628.52	0.13564	0.107534528	0.028105472
628.56	0.13019	0.107536526	0.022653474
628.6	0.13009	0.107538524	0.022551476
628.64	0.13294	0.107540523	0.025399477
628.68	0.13305	0.107542521	0.025507479
628.72	0.13305	0.107544519	0.025505481
628.76	0.13208	0.107546517	0.024533483
628.8	0.1276	0.107548515	0.020051485
628.84	0.13121	0.107550514	0.023659486
628.88	0.13768	0.107552512	0.030127488
628.92	0.12714	0.10755451	0.01958549
628.96	0.12724	0.107556508	0.019683492
629	0.12169	0.107558506	0.014131494
629.04	0.12918	0.107560504	0.021619496
629.08	0.12337	0.107562503	0.015807497
629.12	0.11965	0.107564501	0.012085499
629.16	0.12816	0.107566499	0.020593501
629.2	0.12373	0.107568497	0.016161503
629.24	0.125	0.107570495	0.017429505
629.28	0.12536	0.107572494	0.017787506
629.32	0.11792	0.107574492	0.010345508
629.36	0.12042	0.10757649	0.01284351
629.4	0.11894	0.107578488	0.011361512
629.44	0.12251	0.107580486	0.014929514
629.48	0.11517	0.107582485	0.007587515
629.52	0.10942	0.107584483	0.001835517
629.56	0.10917	0.107586481	0.001583519
629.6	0.11029	0.107588479	0.002701521
629.64	0.11293	0.107590477	0.005339523
629.68	0.10632	0.107592475	-0.001272475
629.72	0.11202	0.107594474	0.004425526
629.76	0.10367	0.107596472	-0.003926472
629.8	0.10275	0.10759847	-0.00484847
629.84	0.1029	0.107600468	-0.004700468
629.88	0.11222	0.107602466	0.004617534
629.92	0.1111	0.107604465	0.003495535
629.96	0.10596	0.107606463	-0.001646463
630	0.10642	0.107608461	-0.001188461
630.04	0.10474	0.107610459	-0.002870459
630.08	0.1053	0.107612457	-0.002312457
630.12	0.10749	0.107614456	-0.000124456
630.16	0.10738	0.107616454	-0.000236454
630.2	0.10458	0.107618452	-0.003038452
630.24	0.0998	0.10762045	-0.00782045
630.28	0.10647	0.107622448	-0.001152448
630.32	0.1028	0.107624447	-0.004824447
630.36	0.10815	0.107626445	0.000523555
630.4	0.10464	0.107628443	-0.002988443
630.44	0.10469	0.107630441	-0.002940441
630.48	0.10265	0.107632439	-0.004982439
630.52	0.10647	0.107634437	-0.001164437
630.56	0.10275	0.107636436	-0.004886436
630.6	0.1027	0.107638434	-0.004938434
630.64	0.10626	0.107640432	-0.001380432
630.68	0.10275	0.10764243	-0.00489243
630.72	0.1027	0.107644428	-0.004944428
630.76	0.10647	0.107646427	-0.001176427
630.8	0.10066	0.107648425	-0.006988425
630.84	0.10015	0.107650423	-0.007500423
630.88	0.10346	0.107652421	-0.004192421
630.92	0.10657	0.107654419	-0.001084419
630.96	0.10464	0.107656418	-0.003016418
631	0.10479	0.107658416	-0.002868416
631.04	0.10453	0.107660414	-0.003130414
631.08	0.10616	0.107662412	-0.001502412
631.12	0.1054	0.10766441	-0.00226441
631.16	0.1056	0.107666408	-0.002066408
631.2	0.10616	0.107668407	-0.001508407
631.24	0.10805	0.107670405	0.000379595
631.28	0.11237	0.107672403	0.004697597
631.32	0.11212	0.107674401	0.004445599
631.36	0.12464	0.107676399	0.016963601
631.4	0.12836	0.107678398	0.020681602
631.44	0.12653	0.107680396	0.018849604
631.48	0.13753	0.107682394	0.029847606
631.52	0.13177	0.107684392	0.024085608
631.56	0.14048	0.10768639	0.03279361
631.6	0.14694	0.107688389	0.039251611
631.64	0.14684	0.107690387	0.039149613
631.68	0.14623	0.107692385	0.038537615
631.72	0.15682	0.107694383	0.049125617
631.76	0.16324	0.107696381	0.055543619
631.8	0.15947	0.107698379	0.051771621
631.84	0.17143	0.107700378	0.063729622
631.88	0.16792	0.107702376	0.060217624
631.92	0.16792	0.107704374	0.060215626
631.96	0.17357	0.107706372	0.065863628
632	0.18101	0.10770837	0.07330163
632.04	0.17739	0.107710369	0.069679631
632.08	0.18187	0.107712367	0.074157633
632.12	0.17989	0.107714365	0.072175635
632.16	0.18941	0.107716363	0.081693637
632.2	0.18961	0.107718361	0.081891639
632.24	0.19409	0.10772036	0.08636964
632.28	0.18936	0.107722358	0.081637642
632.32	0.19155	0.107724356	0.083825644
632.36	0.18406	0.107726354	0.076333646
632.4	0.18238	0.107728352	0.074651648
632.44	0.18019	0.10773035	0.07245965
632.48	0.17444	0.107732349	0.066707651
632.52	0.17418	0.107734347	0.066445653
632.56	0.17454	0.107736345	0.066803655
632.6	0.16695	0.107738343	0.059211657
632.64	0.17057	0.107740341	0.062829659
632.68	0.1753	0.10774234	0.06755766
632.72	0.16303	0.107744338	0.055285662
632.76	0.1614	0.107746336	0.053653664
632.8	0.1611	0.107748334	0.053351666
632.84	0.16303	0.107750332	0.055279668
632.88	0.14145	0.107752331	0.033697669
632.92	0.15463	0.107754329	0.046875671
632.96	0.14435	0.107756327	0.036593673
633	0.14338	0.107758325	0.035621675
633.04	0.14618	0.107760323	0.038419677
633.08	0.13019	0.107762321	0.022427679
633.12	0.13014	0.10776432	0.02237568
633.16	0.13101	0.107766318	0.023243682
633.2	0.12607	0.107768316	0.018301684
633.24	0.12729	0.107770314	0.019519686
633.28	0.13289	0.107772312	0.025117688
633.32	0.12434	0.107774311	0.016565689
633.36	0.12067	0.107776309	0.012893691
633.4	0.12072	0.107778307	0.012941693
633.44	0.12144	0.107780305	0.013659695
633.48	0.11426	0.107782303	0.006477697
633.52	0.11787	0.107784302	0.010085698
633.56	0.11034	0.1077863	0.0025537
633.6	0.111	0.107788298	0.003211702
633.64	0.1055	0.107790296	-0.002290296
633.68	0.10545	0.107792294	-0.002342294
633.72	0.10443	0.107794292	-0.003364292
633.76	0.10896	0.107796291	0.001163709
633.8	0.11008	0.107798289	0.002281711
633.84	0.10464	0.107800287	-0.003160287
633.88	0.10071	0.107802285	-0.007092285
633.92	0.10265	0.107804283	-0.005154283
633.96	0.09822	0.107806282	-0.009586282
634	0.09797	0.10780828	-0.00983828
634.04	0.10387	0.107810278	-0.003940278
634.08	0.11034	0.107812276	0.002527724
634.12	0.10194	0.107814274	-0.005874274
634.16	0.10469	0.107816273	-0.003126273
634.2	0.10352	0.107818271	-0.004298271
634.24	0.0998	0.107820269	-0.008020269
634.28	0.0999	0.107822267	-0.007922267
634.32	0.1056	0.107824265	-0.002224265
634.36	0.10738	0.107826263	-0.000446263
634.4	0.1027	0.107828262	-0.005128262
634.44	0.10082	0.10783026	-0.00701026
634.48	0.10642	0.107832258	-0.001412258
634.52	0.10749	0.107834256	-0.000344256
634.56	0.10754	0.107836254	-0.000296254
634.6	0.1054	0.107838253	-0.002438253
634.64	0.10102	0.107840251	-0.006820251
634.68	0.10158	0.107842249	-0.006262249
634.72	0.10153	0.107844247	-0.006314247
634.76	0.10647	0.107846245	-0.001376245
634.8	0.10178	0.107848244	-0.006068244
634.84	0.10652	0.107850242	-0.001330242
634.88	0.10662	0.10785224	-0.00123224
634.92	0.11319	0.107854238	0.005335762
634.96	0.10555	0.107856236	-0.002306236