	m	t	
f	1.44177E-05	0.0906813	
			
			
X in nm	Y Signal 	f	y-f
560.04	0.10102	0.098755789	0.002264211
560.08	0.09425	0.098756365	-0.004506365
560.12	0.09893	0.098756942	0.000173058
560.16	0.09695	0.098757519	-0.001807519
560.2	0.09603	0.098758096	-0.002728096
560.24	0.10163	0.098758672	0.002871328
560.28	0.10153	0.098759249	0.002770751
560.32	0.10153	0.098759826	0.002770174
560.36	0.0943	0.098760402	-0.004460402
560.4	0.09629	0.098760979	-0.002470979
560.44	0.10005	0.098761556	0.001288444
560.48	0.1001	0.098762132	0.001337868
560.52	0.10387	0.098762709	0.005107291
560.56	0.0971	0.098763286	-0.001663286
560.6	0.097	0.098763863	-0.001763863
560.64	0.09817	0.098764439	-0.000594439
560.68	0.0998	0.098765016	0.001034984
560.72	0.09613	0.098765593	-0.002635593
560.76	0.10474	0.098766169	0.005973831
560.8	0.09893	0.098766746	0.000163254
560.84	0.09537	0.098767323	-0.003397323
560.88	0.09522	0.0987679	-0.0035479
560.92	0.10092	0.098768476	0.002151524
560.96	0.09822	0.098769053	-0.000549053
561	0.09735	0.09876963	-0.00141963
561.04	0.09797	0.098770206	-0.000800206
561.08	0.09888	0.098770783	0.000109217
561.12	0.09608	0.09877136	-0.00269136
561.16	0.09613	0.098771937	-0.002641937
561.2	0.09338	0.098772513	-0.005392513
561.24	0.09878	0.09877309	6.91005E-06
561.28	0.09613	0.098773667	-0.002643667
561.32	0.0941	0.098774243	-0.004674243
561.36	0.09303	0.09877482	-0.00574482
561.4	0.09506	0.098775397	-0.003715397
561.44	0.09603	0.098775973	-0.002745973
561.48	0.09629	0.09877655	-0.00248655
561.52	0.0943	0.098777127	-0.004477127
561.56	0.09623	0.098777704	-0.002547704
561.6	0.09517	0.09877828	-0.00360828
561.64	0.10178	0.098778857	0.003001143
561.68	0.09827	0.098779434	-0.000509434
561.72	0.09613	0.09878001	-0.00265001
561.76	0.09598	0.098780587	-0.002800587
561.8	0.1056	0.098781164	0.006818836
561.84	0.09791	0.098781741	-0.000871741
561.88	0.09878	0.098782317	-2.31728E-06
561.92	0.10168	0.098782894	0.002897106
561.96	0.09695	0.098783471	-0.001833471
562	0.09532	0.098784047	-0.003464047
562.04	0.09501	0.098784624	-0.003774624
562.08	0.09725	0.098785201	-0.001535201
562.12	0.09695	0.098785778	-0.001835778
562.16	0.09511	0.098786354	-0.003676354
562.2	0.09338	0.098786931	-0.005406931
562.24	0.09537	0.098787508	-0.003417508
562.28	0.09893	0.098788084	0.000141916
562.32	0.09705	0.098788661	-0.001738661
562.36	0.0969	0.098789238	-0.001889238
562.4	0.09903	0.098789814	0.000240186
562.44	0.0972	0.098790391	-0.001590391
562.48	0.09618	0.098790968	-0.002610968
562.52	0.09812	0.098791545	-0.000671545
562.56	0.09542	0.098792121	-0.003372121
562.6	0.09165	0.098792698	-0.007142698
562.64	0.09155	0.098793275	-0.007243275
562.68	0.10357	0.098793851	0.004776149
562.72	0.09791	0.098794428	-0.000884428
562.76	0.09868	0.098795005	-0.000115005
562.8	0.10082	0.098795582	0.002024418
562.84	0.10087	0.098796158	0.002073842
562.88	0.09791	0.098796735	-0.000886735
562.92	0.10097	0.098797312	0.002172688
562.96	0.10092	0.098797888	0.002122112
563	0.09618	0.098798465	-0.002618465
563.04	0.10464	0.098799042	0.005840958
563.08	0.09705	0.098799619	-0.001749619
563.12	0.09903	0.098800195	0.000229805
563.16	0.09903	0.098800772	0.000229228
563.2	0.09898	0.098801349	0.000178651
563.24	0.09914	0.098801925	0.000338075
563.28	0.09802	0.098802502	-0.000782502
563.32	0.10082	0.098803079	0.002016921
563.36	0.09903	0.098803655	0.000226345
563.4	0.0999	0.098804232	0.001095768
563.44	0.09506	0.098804809	-0.003744809
563.48	0.09623	0.098805386	-0.002575386
563.52	0.09613	0.098805962	-0.002675962
563.56	0.09481	0.098806539	-0.003996539
563.6	0.0943	0.098807116	-0.004507116
563.64	0.10077	0.098807692	0.001962308
563.68	0.09618	0.098808269	-0.002628269
563.72	0.10204	0.098808846	0.003231154
563.76	0.09608	0.098809423	-0.002729423
563.8	0.0942	0.098809999	-0.004609999
563.84	0.0942	0.098810576	-0.004610576
563.88	0.09807	0.098811153	-0.000741153
563.92	0.09323	0.098811729	-0.005581729
563.96	0.09135	0.098812306	-0.007462306
564	0.09797	0.098812883	-0.000842883
564.04	0.09216	0.09881346	-0.00665346
564.08	0.09786	0.098814036	-0.000954036
564.12	0.09812	0.098814613	-0.000694613
564.16	0.10194	0.09881519	0.00312481
564.2	0.10265	0.098815766	0.003834234
564.24	0.09613	0.098816343	-0.002686343
564.28	0.09995	0.09881692	0.00113308
564.32	0.09613	0.098817496	-0.002687496
564.36	0.09858	0.098818073	-0.000238073
564.4	0.10285	0.09881865	0.00403135
564.44	0.1025	0.098819227	0.003680773
564.48	0.10077	0.098819803	0.001950197
564.52	0.09914	0.09882038	0.00031962
564.56	0.10194	0.098820957	0.003119043
564.6	0.09435	0.098821533	-0.004471533
564.64	0.10453	0.09882211	0.00570789
564.68	0.09995	0.098822687	0.001127313
564.72	0.09995	0.098823264	0.001126736
564.76	0.10071	0.09882384	0.00188616
564.8	0.09486	0.098824417	-0.003964417
564.84	0.09629	0.098824994	-0.002534994
564.88	0.10168	0.09882557	0.00285443
564.92	0.09812	0.098826147	-0.000706147
564.96	0.09985	0.098826724	0.001023276
565	0.09985	0.098827301	0.001022699
565.04	0.10107	0.098827877	0.002242123
565.08	0.1001	0.098828454	0.001271546
565.12	0.10092	0.098829031	0.002090969
565.16	0.10458	0.098829607	0.005750393
565.2	0.10173	0.098830184	0.002899816
565.24	0.09807	0.098830761	-0.000760761
565.28	0.10178	0.098831337	0.002948663
565.32	0.10163	0.098831914	0.002798086
565.36	0.10453	0.098832491	0.005697509
565.4	0.09893	0.098833068	9.69324E-05
565.44	0.10021	0.098833644	0.001376356
565.48	0.09537	0.098834221	-0.003464221
565.52	0.10443	0.098834798	0.005595202
565.56	0.09817	0.098835374	-0.000665374
565.6	0.09827	0.098835951	-0.000565951
565.64	0.10367	0.098836528	0.004833472
565.68	0.09797	0.098837105	-0.000867105
565.72	0.10265	0.098837681	0.003812319
565.76	0.10153	0.098838258	0.002691742
565.8	0.10652	0.098838835	0.007681165
565.84	0.10005	0.098839411	0.001210589
565.88	0.0998	0.098839988	0.000960012
565.92	0.09735	0.098840565	-0.001490565
565.96	0.09995	0.098841141	0.001108859
566	0.10092	0.098841718	0.002078282
566.04	0.10066	0.098842295	0.001817705
566.08	0.09145	0.098842872	-0.007392872
566.12	0.09613	0.098843448	-0.002713448
566.16	0.09786	0.098844025	-0.000984025
566.2	0.09812	0.098844602	-0.000724602
566.24	0.10087	0.098845178	0.002024822
566.28	0.09425	0.098845755	-0.004595755
566.32	0.09517	0.098846332	-0.003676332
566.36	0.09898	0.098846909	0.000133091
566.4	0.09807	0.098847485	-0.000777485
566.44	0.09578	0.098848062	-0.003068062
566.48	0.09613	0.098848639	-0.002718639
566.52	0.09888	0.098849215	3.07846E-05
566.56	0.09893	0.098849792	8.02079E-05
566.6	0.09608	0.098850369	-0.002770369
566.64	0.10285	0.098850946	0.003999054
566.68	0.09914	0.098851522	0.000288478
566.72	0.09919	0.098852099	0.000337901
566.76	0.09725	0.098852676	-0.001602676
566.8	0.09695	0.098853252	-0.001903252
566.84	0.09797	0.098853829	-0.000883829
566.88	0.09898	0.098854406	0.000125594
566.92	0.09888	0.098854982	2.50175E-05
566.96	0.09807	0.098855559	-0.000785559
567	0.10061	0.098856136	0.001753864
567.04	0.10362	0.098856713	0.004763287
567.08	0.10367	0.098857289	0.004812711
567.12	0.097	0.098857866	-0.001857866
567.16	0.1029	0.098858443	0.004041557
567.2	0.09517	0.098859019	-0.003689019
567.24	0.09629	0.098859596	-0.002569596
567.28	0.09425	0.098860173	-0.004610173
567.32	0.09791	0.09886075	-0.00095075
567.36	0.09802	0.098861326	-0.000841326
567.4	0.10005	0.098861903	0.001188097
567.44	0.09695	0.09886248	-0.00191248
567.48	0.09629	0.098863056	-0.002573056
567.52	0.09995	0.098863633	0.001086367
567.56	0.09781	0.09886421	-0.00105421
567.6	0.09043	0.098864787	-0.008434787
567.64	0.09629	0.098865363	-0.002575363
567.68	0.09588	0.09886594	-0.00298594
567.72	0.09679	0.098866517	-0.002076517
567.76	0.09399	0.098867093	-0.004877093
567.8	0.0999	0.09886767	0.00103233
567.84	0.09903	0.098868247	0.000161753
567.88	0.10005	0.098868823	0.001181177
567.92	0.09405	0.0988694	-0.0048194
567.96	0.09415	0.098869977	-0.004719977
568	0.09888	0.098870554	9.4464E-06
568.04	0.10015	0.09887113	0.00127887
568.08	0.09995	0.098871707	0.001078293
568.12	0.09903	0.098872284	0.000157716
568.16	0.09817	0.09887286	-0.00070286
568.2	0.10015	0.098873437	0.001276563
568.24	0.09934	0.098874014	0.000465986
568.28	0.09883	0.098874591	-4.45906E-05
568.32	0.09985	0.098875167	0.000974833
568.36	0.09817	0.098875744	-0.000705744
568.4	0.09415	0.098876321	-0.004726321
568.44	0.09985	0.098876897	0.000973103
568.48	0.09695	0.098877474	-0.001927474
568.52	0.10377	0.098878051	0.004891949
568.56	0.10367	0.098878628	0.004791372
568.6	0.10173	0.098879204	0.002850796
568.64	0.10189	0.098879781	0.003010219
568.68	0.09802	0.098880358	-0.000860358
568.72	0.09695	0.098880934	-0.001930934
568.76	0.09435	0.098881511	-0.004531511
568.8	0.09603	0.098882088	-0.002852088
568.84	0.09598	0.098882664	-0.002902664
568.88	0.10367	0.098883241	0.004786759
568.92	0.09715	0.098883818	-0.001733818
568.96	0.10311	0.098884395	0.004225605
569	0.09629	0.098884971	-0.002594971
569.04	0.09812	0.098885548	-0.000765548
569.08	0.0999	0.098886125	0.001013875
569.12	0.0999	0.098886701	0.001013299
569.16	0.09975	0.098887278	0.000862722
569.2	0.09817	0.098887855	-0.000717855
569.24	0.0973	0.098888432	-0.001588432
569.28	0.09807	0.098889008	-0.000819008
569.32	0.09623	0.098889585	-0.002659585
569.36	0.09995	0.098890162	0.001059838
569.4	0.10173	0.098890738	0.002839262
569.44	0.10214	0.098891315	0.003248685
569.48	0.09613	0.098891892	-0.002761892
569.52	0.09333	0.098892469	-0.005562469
569.56	0.09399	0.098893045	-0.004903045
569.6	0.10092	0.098893622	0.002026378
569.64	0.09898	0.098894199	8.58014E-05
569.68	0.10077	0.098894775	0.001875225
569.72	0.10087	0.098895352	0.001974648
569.76	0.09226	0.098895929	-0.006635929
569.8	0.09985	0.098896505	0.000953495
569.84	0.10306	0.098897082	0.004162918
569.88	0.10178	0.098897659	0.002882341
569.92	0.09135	0.098898236	-0.007548236
569.96	0.0971	0.098898812	-0.001798812
570	0.0997	0.098899389	0.000800611
570.04	0.09995	0.098899966	0.001050034
570.08	0.10199	0.098900542	0.003089458
570.12	0.09674	0.098901119	-0.002161119
570.16	0.09761	0.098901696	-0.001291696
570.2	0.09995	0.098902273	0.001047727
570.24	0.09802	0.098902849	-0.000882849
570.28	0.09771	0.098903426	-0.001193426
570.32	0.09817	0.098904003	-0.000734003
570.36	0.0914	0.098904579	-0.007504579
570.4	0.10077	0.098905156	0.001864844
570.44	0.09791	0.098905733	-0.000995733
570.48	0.09715	0.098906309	-0.001756309
570.52	0.09883	0.098906886	-7.68862E-05
570.56	0.09532	0.098907463	-0.003587463
570.6	0.0969	0.09890804	-0.00200804
570.64	0.0972	0.098908616	-0.001708616
570.68	0.09639	0.098909193	-0.002519193
570.72	0.09593	0.09890977	-0.00297977
570.76	0.1001	0.098910346	0.001189654
570.8	0.09705	0.098910923	-0.001860923
570.84	0.09425	0.0989115	-0.0046615
570.88	0.09883	0.098912077	-8.20766E-05
570.92	0.09888	0.098912653	-3.26533E-05
570.96	0.09914	0.09891323	0.00022677
571	0.10082	0.098913807	0.001906193
571.04	0.09608	0.098914383	-0.002834383
571.08	0.09807	0.09891496	-0.00084496
571.12	0.10097	0.098915537	0.002054463
571.16	0.09766	0.098916114	-0.001256114
571.2	0.09817	0.09891669	-0.00074669
571.24	0.09527	0.098917267	-0.003647267
571.28	0.10082	0.098917844	0.001902156
571.32	0.09527	0.09891842	-0.00364842
571.36	0.09898	0.098918997	6.10029E-05
571.4	0.09455	0.098919574	-0.004369574
571.44	0.1027	0.09892015	0.00377985
571.48	0.09695	0.098920727	-0.001970727
571.52	0.09705	0.098921304	-0.001871304
571.56	0.09898	0.098921881	5.81194E-05
571.6	0.09797	0.098922457	-0.000952457
571.64	0.10265	0.098923034	0.003726966
571.68	0.09608	0.098923611	-0.002843611
571.72	0.10102	0.098924187	0.002095813
571.76	0.10097	0.098924764	0.002045236
571.8	0.10092	0.098925341	0.001994659
571.84	0.10021	0.098925918	0.001284082
571.88	0.09802	0.098926494	-0.000906494
571.92	0.09995	0.098927071	0.001022929
571.96	0.09878	0.098927648	-0.000147648
572	0.09797	0.098928224	-0.000958224
572.04	0.09878	0.098928801	-0.000148801
572.08	0.09909	0.098929378	0.000160622
572.12	0.10626	0.098929955	0.007330045
572.16	0.09685	0.098930531	-0.002080531
572.2	0.09318	0.098931108	-0.005751108
572.24	0.09883	0.098931685	-0.000101685
572.28	0.0998	0.098932261	0.000867739
572.32	0.09629	0.098932838	-0.002642838
572.36	0.09822	0.098933415	-0.000713415
572.4	0.09776	0.098933991	-0.001173991
572.44	0.10652	0.098934568	0.007585432
572.48	0.09995	0.098935145	0.001014855
572.52	0.097	0.098935722	-0.001935722
572.56	0.0973	0.098936298	-0.001636298
572.6	0.09598	0.098936875	-0.002956875
572.64	0.10652	0.098937452	0.007582548
572.68	0.10657	0.098938028	0.007631972
572.72	0.09695	0.098938605	-0.001988605
572.76	0.10005	0.098939182	0.001110818
572.8	0.0944	0.098939759	-0.004539759
572.84	0.09888	0.098940335	-6.03353E-05
572.88	0.09878	0.098940912	-0.000160912
572.92	0.09231	0.098941489	-0.006631489
572.96	0.09995	0.098942065	0.001007935
573	0.09975	0.098942642	0.000807358
573.04	0.09634	0.098943219	-0.002603219
573.08	0.10102	0.098943796	0.002076204
573.12	0.0914	0.098944372	-0.007544372
573.16	0.10265	0.098944949	0.003705051
573.2	0.09914	0.098945526	0.000194474
573.24	0.09903	0.098946102	8.38977E-05
573.28	0.09898	0.098946679	3.33209E-05
573.32	0.0972	0.098947256	-0.001747256
573.36	0.09888	0.098947832	-6.78325E-05
573.4	0.10092	0.098948409	0.001971591
573.44	0.09914	0.098948986	0.000191014
573.48	0.1028	0.098949563	0.003850437
573.52	0.09522	0.098950139	-0.003730139
573.56	0.09527	0.098950716	-0.003680716
573.6	0.09715	0.098951293	-0.001801293
573.64	0.10265	0.098951869	0.003698131
573.68	0.10173	0.098952446	0.002777554
573.72	0.09954	0.098953023	0.000586977
573.76	0.1027	0.0989536	0.0037464
573.8	0.10178	0.098954176	0.002825824
573.84	0.09893	0.098954753	-2.4753E-05
573.88	0.09883	0.09895533	-0.00012533
573.92	0.09705	0.098955906	-0.001905906
573.96	0.09741	0.098956483	-0.001546483
574	0.0917	0.09895706	-0.00725706
574.04	0.10163	0.098957637	0.002672363
574.08	0.10077	0.098958213	0.001811787
574.12	0.09313	0.09895879	-0.00582879
574.16	0.09333	0.098959367	-0.005629367
574.2	0.10102	0.098959943	0.002060057
574.24	0.09511	0.09896052	-0.00385052
574.28	0.10474	0.098961097	0.005778903
574.32	0.09786	0.098961673	-0.001101673
574.36	0.10021	0.09896225	0.00124775
574.4	0.09817	0.098962827	-0.000792827
574.44	0.10275	0.098963404	0.003786596
574.48	0.10285	0.09896398	0.00388602
574.52	0.10097	0.098964557	0.002005443
574.56	0.10275	0.098965134	0.003784866
574.6	0.09791	0.09896571	-0.00105571
574.64	0.10377	0.098966287	0.004803713
574.68	0.09618	0.098966864	-0.002786864
574.72	0.09705	0.098967441	-0.001917441
574.76	0.09685	0.098968017	-0.002118017
574.8	0.10204	0.098968594	0.003071406
574.84	0.0998	0.098969171	0.000830829
574.88	0.1026	0.098969747	0.003630253
574.92	0.09822	0.098970324	-0.000750324
574.96	0.1057	0.098970901	0.006729099
575	0.09914	0.098971478	0.000168523
575.04	0.09888	0.098972054	-9.20542E-05
575.08	0.10275	0.098972631	0.003777369
575.12	0.10082	0.098973208	0.001846792
575.16	0.09618	0.098973784	-0.002793784
575.2	0.09695	0.098974361	-0.002024361
575.24	0.10082	0.098974938	0.001845062
575.28	0.09537	0.098975514	-0.003605514
575.32	0.10362	0.098976091	0.004643909
575.36	0.10387	0.098976668	0.004893332
575.4	0.1	0.098977245	0.001022755
575.44	0.10362	0.098977821	0.004642179
575.48	0.09995	0.098978398	0.000971602
575.52	0.09893	0.098978975	-4.89747E-05
575.56	0.1084	0.098979551	0.009420449
575.6	0.10652	0.098980128	0.007539872
575.64	0.10621	0.098980705	0.007229295
575.68	0.10178	0.098981282	0.002798718
575.72	0.10163	0.098981858	0.002648142
575.76	0.10071	0.098982435	0.001727565
575.8	0.09903	0.098983012	4.69883E-05
575.84	0.09995	0.098983588	0.000966412
575.88	0.1001	0.098984165	0.001115835
575.92	0.1	0.098984742	0.001015258
575.96	0.10178	0.098985318	0.002794682
576	0.10077	0.098985895	0.001784105
576.04	0.10367	0.098986472	0.004683528
576.08	0.10133	0.098987049	0.002342951
576.12	0.10474	0.098987625	0.005752375
576.16	0.10097	0.098988202	0.001981798
576.2	0.10163	0.098988779	0.002641221
576.24	0.10173	0.098989355	0.002740645
576.28	0.10168	0.098989932	0.002690068
576.32	0.09995	0.098990509	0.000959491
576.36	0.10443	0.098991086	0.005438914
576.4	0.10647	0.098991662	0.007478338
576.44	0.10377	0.098992239	0.004777761
576.48	0.10092	0.098992816	0.001927184
576.52	0.10056	0.098993392	0.001566608
576.56	0.09634	0.098993969	-0.002653969
576.6	0.10087	0.098994546	0.001875454
576.64	0.10087	0.098995123	0.001874877
576.68	0.10749	0.098995699	0.008494301
576.72	0.09634	0.098996276	-0.002656276
576.76	0.10362	0.098996853	0.004623147
576.8	0.09598	0.098997429	-0.003017429
576.84	0.09613	0.098998006	-0.002868006
576.88	0.1	0.098998583	0.001001417
576.92	0.0972	0.098999159	-0.001799159
576.96	0.10077	0.098999736	0.001770264
577	0.09822	0.099000313	-0.000780313
577.04	0.09532	0.09900089	-0.00368089
577.08	0.09685	0.099001466	-0.002151466
577.12	0.09746	0.099002043	-0.001542043
577.16	0.097	0.09900262	-0.00200262
577.2	0.09613	0.099003196	-0.002873196
577.24	0.09135	0.099003773	-0.007653773
577.28	0.09903	0.09900435	2.56501E-05
577.32	0.09725	0.099004927	-0.001754927
577.36	0.09995	0.099005503	0.000944497
577.4	0.09995	0.09900608	0.00094392
577.44	0.10087	0.099006657	0.001863343
577.48	0.09705	0.099007233	-0.001957233
577.52	0.1027	0.09900781	0.00369219
577.56	0.10469	0.099008387	0.005681613
577.6	0.10723	0.099008964	0.008221036
577.64	0.09634	0.09900954	-0.00266954
577.68	0.0972	0.099010117	-0.001810117
577.72	0.0971	0.099010694	-0.001910694
577.76	0.10082	0.09901127	0.00180873
577.8	0.09975	0.099011847	0.000738153
577.84	0.09705	0.099012424	-0.001962424
577.88	0.09425	0.099013	-0.004763
577.92	0.09705	0.099013577	-0.001963577
577.96	0.09634	0.099014154	-0.002674154
578	0.09608	0.099014731	-0.002934731
578.04	0.09425	0.099015307	-0.004765307
578.08	0.1	0.099015884	0.000984116
578.12	0.09476	0.099016461	-0.004256461
578.16	0.09618	0.099017037	-0.002837037
578.2	0.09822	0.099017614	-0.000797614
578.24	0.09797	0.099018191	-0.001048191
578.28	0.10464	0.099018768	0.005621232
578.32	0.10443	0.099019344	0.005410656
578.36	0.10005	0.099019921	0.001030079
578.4	0.09903	0.099020498	9.50232E-06
578.44	0.10219	0.099021074	0.003168926
578.48	0.09888	0.099021651	-0.000141651
578.52	0.0969	0.099022228	-0.002122228
578.56	0.10097	0.099022805	0.001947195
578.6	0.10066	0.099023381	0.001636619
578.64	0.09695	0.099023958	-0.002073958
578.68	0.09878	0.099024535	-0.000244535
578.72	0.09318	0.099025111	-0.005845111
578.76	0.09522	0.099025688	-0.003805688
578.8	0.09817	0.099026265	-0.000856265
578.84	0.09435	0.099026841	-0.004676841
578.88	0.09435	0.099027418	-0.004677418
578.92	0.1027	0.099027995	0.003672005
578.96	0.10021	0.099028572	0.001181428
579	0.09333	0.099029148	-0.005699148
579.04	0.10005	0.099029725	0.001020275
579.08	0.10173	0.099030302	0.002699698
579.12	0.10117	0.099030878	0.002139122
579.16	0.09776	0.099031455	-0.001271455
579.2	0.09807	0.099032032	-0.000962032
579.24	0.10071	0.099032609	0.001677391
579.28	0.10005	0.099033185	0.001016815
579.32	0.09333	0.099033762	-0.005703762
579.36	0.09695	0.099034339	-0.002084339
579.4	0.09425	0.099034915	-0.004784915
579.44	0.09608	0.099035492	-0.002955492
579.48	0.09623	0.099036069	-0.002806069
579.52	0.09802	0.099036646	-0.001016646
579.56	0.10005	0.099037222	0.001012778
579.6	0.0943	0.099037799	-0.004737799
579.64	0.09618	0.099038376	-0.002858376
579.68	0.10061	0.099038952	0.001571048
579.72	0.1	0.099039529	0.000960471
579.76	0.1	0.099040106	0.000959894
579.8	0.0999	0.099040682	0.000859318
579.84	0.10183	0.099041259	0.002788741
579.88	0.09802	0.099041836	-0.001021836
579.92	0.09781	0.099042413	-0.001232413
579.96	0.10189	0.099042989	0.002847011
580	0.10178	0.099043566	0.002736434
580.04	0.0971	0.099044143	-0.001944143
580.08	0.09725	0.099044719	-0.001794719
580.12	0.10448	0.099045296	0.005434704
580.16	0.10642	0.099045873	0.007374127
580.2	0.10107	0.09904645	0.00202355
580.24	0.10204	0.099047026	0.002992974
580.28	0.09883	0.099047603	-0.000217603
580.32	0.09674	0.09904818	-0.00230818
580.36	0.09725	0.099048756	-0.001798756
580.4	0.09807	0.099049333	-0.000979333
580.44	0.09725	0.09904991	-0.00179991
580.48	0.09903	0.099050486	-2.04865E-05
580.52	0.09985	0.099051063	0.000798937
580.56	0.09812	0.09905164	-0.00093164
580.6	0.10194	0.099052217	0.002887783
580.64	0.09919	0.099052793	0.000137207
580.68	0.09893	0.09905337	-0.00012337
580.72	0.1027	0.099053947	0.003646053
580.76	0.09903	0.099054523	-2.45235E-05
580.8	0.0999	0.0990551	0.0008449
580.84	0.10372	0.099055677	0.004664323
580.88	0.1027	0.099056254	0.003643746
580.92	0.10173	0.09905683	0.00267317
580.96	0.10189	0.099057407	0.002832593
581	0.09802	0.099057984	-0.001037984
581.04	0.09613	0.09905856	-0.00292856
581.08	0.1	0.099059137	0.000940863
581.12	0.10021	0.099059714	0.001150286
581.16	0.10285	0.099060291	0.003789709
581.2	0.10097	0.099060867	0.001909133
581.24	0.10087	0.099061444	0.001808556
581.28	0.10066	0.099062021	0.001597979
581.32	0.10469	0.099062597	0.005627403
581.36	0.10382	0.099063174	0.004756826
581.4	0.10265	0.099063751	0.003586249
581.44	0.09985	0.099064327	0.000785673
581.48	0.09791	0.099064904	-0.001154904
581.52	0.10178	0.099065481	0.002714519
581.56	0.10189	0.099066058	0.002823942
581.6	0.10015	0.099066634	0.001083366
581.64	0.10173	0.099067211	0.002662789
581.68	0.10173	0.099067788	0.002662212
581.72	0.111	0.099068364	0.011931636
581.76	0.1027	0.099068941	0.003631059
581.8	0.10942	0.099069518	0.010350482
581.84	0.10912	0.099070095	0.010049905
581.88	0.1056	0.099070671	0.006529329
581.92	0.1056	0.099071248	0.006528752
581.96	0.09985	0.099071825	0.000778175
582	0.1001	0.099072401	0.001027599
582.04	0.10173	0.099072978	0.002657022
582.08	0.09807	0.099073555	-0.001003555
582.12	0.10306	0.099074132	0.003985868
582.16	0.1029	0.099074708	0.003825292
582.2	0.09924	0.099075285	0.000164715
582.24	0.10061	0.099075862	0.001534138
582.28	0.09613	0.099076438	-0.002946438
582.32	0.10097	0.099077015	0.001892985
582.36	0.09623	0.099077592	-0.002847592
582.4	0.09919	0.099078168	0.000111832
582.44	0.09924	0.099078745	0.000161255
582.48	0.10581	0.099079322	0.006730678
582.52	0.09491	0.099079899	-0.004169899
582.56	0.10015	0.099080475	0.001069525
582.6	0.1	0.099081052	0.000918948
582.64	0.10097	0.099081629	0.001888371
582.68	0.09797	0.099082205	-0.001112205
582.72	0.09817	0.099082782	-0.000912782
582.76	0.10189	0.099083359	0.002806641
582.8	0.09613	0.099083936	-0.002953936
582.84	0.09354	0.099084512	-0.005544512
582.88	0.09623	0.099085089	-0.002855089
582.92	0.09797	0.099085666	-0.001115666
582.96	0.10005	0.099086242	0.000963758
583	0.09822	0.099086819	-0.000866819
583.04	0.09802	0.099087396	-0.001067396
583.08	0.09802	0.099087973	-0.001067973
583.12	0.09812	0.099088549	-0.000968549
583.16	0.09797	0.099089126	-0.001119126
583.2	0.09924	0.099089703	0.000150297
583.24	0.09909	0.099090279	-2.79348E-07
583.28	0.09802	0.099090856	-0.001070856
583.32	0.09797	0.099091433	-0.001121433
583.36	0.10092	0.099092009	0.001827991
583.4	0.0972	0.099092586	-0.001892586
583.44	0.10163	0.099093163	0.002536837
583.48	0.0973	0.09909374	-0.00179374
583.52	0.09715	0.099094316	-0.001944316
583.56	0.0942	0.099094893	-0.004894893
583.6	0.09435	0.09909547	-0.00474547
583.64	0.09903	0.099096046	-6.60464E-05
583.68	0.09807	0.099096623	-0.001026623
583.72	0.09511	0.0990972	-0.0039872
583.76	0.09226	0.099097777	-0.006837777
583.8	0.10173	0.099098353	0.002631647
583.84	0.0969	0.09909893	-0.00219893
583.88	0.09893	0.099099507	-0.000169507
583.92	0.09898	0.099100083	-0.000120083
583.96	0.10071	0.09910066	0.00160934
584	0.1001	0.099101237	0.000998763
584.04	0.09985	0.099101814	0.000748186
584.08	0.10189	0.09910239	0.00278761
584.12	0.09883	0.099102967	-0.000272967
584.16	0.097	0.099103544	-0.002103544
584.2	0.09715	0.09910412	-0.00195412
584.24	0.0944	0.099104697	-0.004704697
584.28	0.09893	0.099105274	-0.000175274
584.32	0.10005	0.09910585	0.00094415
584.36	0.1001	0.099106427	0.000993573
584.4	0.09888	0.099107004	-0.000227004
584.44	0.10245	0.099107581	0.003342419
584.48	0.09593	0.099108157	-0.003178157
584.52	0.09593	0.099108734	-0.003178734
584.56	0.10367	0.099109311	0.004560689
584.6	0.09725	0.099109887	-0.001859887
584.64	0.10484	0.099110464	0.005729536
584.68	0.0971	0.099111041	-0.002011041
584.72	0.09348	0.099111618	-0.005631618
584.76	0.09817	0.099112194	-0.000942194
584.8	0.09817	0.099112771	-0.000942771
584.84	0.10555	0.099113348	0.006436652
584.88	0.09878	0.099113924	-0.000333924
584.92	0.10066	0.099114501	0.001545499
584.96	0.09527	0.099115078	-0.003845078
585	0.09898	0.099115655	-0.000135655
585.04	0.0971	0.099116231	-0.002016231
585.08	0.09685	0.099116808	-0.002266808
585.12	0.1001	0.099117385	0.000982615
585.16	0.1027	0.099117961	0.003582039
585.2	0.09898	0.099118538	-0.000138538
585.24	0.09705	0.099119115	-0.002069115
585.28	0.1	0.099119691	0.000880309
585.32	0.09797	0.099120268	-0.001150268
585.36	0.10265	0.099120845	0.003529155
585.4	0.10265	0.099121422	0.003528578
585.44	0.09888	0.099121998	-0.000241998
585.48	0.1055	0.099122575	0.006377425
585.52	0.09985	0.099123152	0.000726848
585.56	0.09791	0.099123728	-0.001213728
585.6	0.10015	0.099124305	0.001025695
585.64	0.09608	0.099124882	-0.003044882
585.68	0.09608	0.099125459	-0.003045459
585.72	0.10071	0.099126035	0.001583965
585.76	0.10021	0.099126612	0.001083388
585.8	0.097	0.099127189	-0.002127189
585.84	0.10372	0.099127765	0.004592235
585.88	0.09532	0.099128342	-0.003808342
585.92	0.09623	0.099128919	-0.002898919
585.96	0.09608	0.099129495	-0.003049495
586	0.10189	0.099130072	0.002759928
586.04	0.09425	0.099130649	-0.004880649
586.08	0.10087	0.099131226	0.001738774
586.12	0.09506	0.099131802	-0.004071802
586.16	0.10397	0.099132379	0.004837621
586.2	0.10189	0.099132956	0.002757044
586.24	0.09613	0.099133532	-0.003003532
586.28	0.09618	0.099134109	-0.002954109
586.32	0.10199	0.099134686	0.002855314
586.36	0.09715	0.099135263	-0.001985263
586.4	0.09909	0.099135839	-4.58393E-05
586.44	0.10382	0.099136416	0.004683584
586.48	0.10178	0.099136993	0.002643007
586.52	0.09817	0.099137569	-0.000967569
586.56	0.09802	0.099138146	-0.001118146
586.6	0.09685	0.099138723	-0.002288723
586.64	0.09797	0.0991393	-0.0011693
586.68	0.09914	0.099139876	1.23764E-07
586.72	0.0997	0.099140453	0.000559547
586.76	0.10005	0.09914103	0.00090897
586.8	0.10469	0.099141606	0.005548394
586.84	0.10168	0.099142183	0.002537817
586.88	0.10173	0.09914276	0.00258724
586.92	0.09797	0.099143336	-0.001173336
586.96	0.10102	0.099143913	0.001876087
587	0.10458	0.09914449	0.00543551
587.04	0.10275	0.099145067	0.003604933
587.08	0.0999	0.099145643	0.000754357
587.12	0.10189	0.09914622	0.00274378
587.16	0.10204	0.099146797	0.002893203
587.2	0.0997	0.099147373	0.000552627
587.24	0.10275	0.09914795	0.00360205
587.28	0.10662	0.099148527	0.007471473
587.32	0.10107	0.099149104	0.001920896
587.36	0.09613	0.09914968	-0.00301968
587.4	0.1028	0.099150257	0.003649743
587.44	0.10275	0.099150834	0.003599166
587.48	0.10168	0.09915141	0.00252859
587.52	0.0999	0.099151987	0.000748013
587.56	0.0972	0.099152564	-0.001952564
587.6	0.0999	0.099153141	0.000746859
587.64	0.09995	0.099153717	0.000796283
587.68	0.10082	0.099154294	0.001665706
587.72	0.09914	0.099154871	-1.48706E-05
587.76	0.09888	0.099155447	-0.000275447
587.8	0.0972	0.099156024	-0.001956024
587.84	0.10499	0.099156601	0.005833399
587.88	0.09791	0.099157177	-0.001247177
587.92	0.10133	0.099157754	0.002172246
587.96	0.10275	0.099158331	0.003591669
588	0.09873	0.099158908	-0.000428908
588.04	0.09914	0.099159484	-1.94843E-05
588.08	0.09893	0.099160061	-0.000230061
588.12	0.10469	0.099160638	0.005529362
588.16	0.09832	0.099161214	-0.000841214
588.2	0.09781	0.099161791	-0.001351791
588.24	0.10387	0.099162368	0.004707632
588.28	0.09802	0.099162945	-0.001142945
588.32	0.0971	0.099163521	-0.002063521
588.36	0.09725	0.099164098	-0.001914098
588.4	0.09506	0.099164675	-0.004104675
588.44	0.10102	0.099165251	0.001854749
588.48	0.09023	0.099165828	-0.008935828
588.52	0.1001	0.099166405	0.000933595
588.56	0.1054	0.099166982	0.006233018
588.6	0.09613	0.099167558	-0.003037558
588.64	0.09613	0.099168135	-0.003038135
588.68	0.09985	0.099168712	0.000681288
588.72	0.0999	0.099169288	0.000730712
588.76	0.09517	0.099169865	-0.003999865
588.8	0.09878	0.099170442	-0.000390442
588.84	0.09165	0.099171018	-0.007521018
588.88	0.09807	0.099171595	-0.001101595
588.92	0.09812	0.099172172	-0.001052172
588.96	0.10082	0.099172749	0.001647251
589	0.10143	0.099173325	0.002256675
589.04	0.09501	0.099173902	-0.004163902
589.08	0.1028	0.099174479	0.003625521
589.12	0.09033	0.099175055	-0.008845055
589.16	0.10306	0.099175632	0.003884368
589.2	0.09715	0.099176209	-0.002026209
589.24	0.09705	0.099176786	-0.002126786
589.28	0.09822	0.099177362	-0.000957362
589.32	0.1056	0.099177939	0.006422061
589.36	0.09995	0.099178516	0.000771484
589.4	0.09893	0.099179092	-0.000249092
589.44	0.09883	0.099179669	-0.000349669
589.48	0.10514	0.099180246	0.005959754
589.52	0.10565	0.099180823	0.006469177
589.56	0.10285	0.099181399	0.003668601
589.6	0.10255	0.099181976	0.003368024
589.64	0.10015	0.099182553	0.000967447
589.68	0.09985	0.099183129	0.000666871
589.72	0.10066	0.099183706	0.001476294
589.76	0.09893	0.099184283	-0.000254283
589.8	0.09909	0.099184859	-9.48595E-05
589.84	0.10204	0.099185436	0.002854564
589.88	0.10835	0.099186013	0.009163987
589.92	0.10362	0.09918659	0.00443341
589.96	0.10458	0.099187166	0.005392834
590	0.09695	0.099187743	-0.002237743
590.04	0.10372	0.09918832	0.00453168
590.08	0.09873	0.099188896	-0.000458896
590.12	0.09914	0.099189473	-4.94731E-05
590.16	0.1054	0.09919005	0.00620995
590.2	0.09522	0.099190627	-0.003970627
590.24	0.09623	0.099191203	-0.002961203
590.28	0.09532	0.09919178	-0.00387178
590.32	0.1001	0.099192357	0.000907643
590.36	0.1029	0.099192933	0.003707067
590.4	0.10301	0.09919351	0.00381649
590.44	0.10443	0.099194087	0.005235913
590.48	0.0999	0.099194663	0.000705337
590.52	0.10362	0.09919524	0.00442476
590.56	0.10178	0.099195817	0.002584183
590.6	0.1083	0.099196394	0.009103606
590.64	0.10642	0.09919697	0.00722303
590.68	0.09903	0.099197547	-0.000167547
590.72	0.09919	0.099198124	-8.12374E-06
590.76	0.0943	0.0991987	-0.0048987
590.8	0.10087	0.099199277	0.001670723
590.84	0.10387	0.099199854	0.004670146
590.88	0.1026	0.099200431	0.003399569
590.92	0.09705	0.099201007	-0.002151007
590.96	0.10077	0.099201584	0.001568416
591	0.10082	0.099202161	0.001617839
591.04	0.09868	0.099202737	-0.000522737
591.08	0.0969	0.099203314	-0.002303314
591.12	0.09791	0.099203891	-0.001293891
591.16	0.10458	0.099204468	0.005375532
591.2	0.10295	0.099205044	0.003744956
591.24	0.09919	0.099205621	-1.56209E-05
591.28	0.09903	0.099206198	-0.000176198
591.32	0.09318	0.099206774	-0.006026774
591.36	0.10372	0.099207351	0.004512649
591.4	0.10199	0.099207928	0.002782072
591.44	0.10087	0.099208504	0.001661496
591.48	0.10306	0.099209081	0.003850919
591.52	0.0971	0.099209658	-0.002109658
591.56	0.09613	0.099210235	-0.003080235
591.6	0.09618	0.099210811	-0.003030811
591.64	0.09888	0.099211388	-0.000331388
591.68	0.09888	0.099211965	-0.000331965
591.72	0.09903	0.099212541	-0.000182541
591.76	0.10102	0.099213118	0.001806882
591.8	0.09914	0.099213695	-7.36949E-05
591.84	0.09715	0.099214272	-0.002064272
591.88	0.09705	0.099214848	-0.002164848
591.92	0.10749	0.099215425	0.008274575
591.96	0.10372	0.099216002	0.004503998
592	0.10357	0.099216578	0.004353422
592.04	0.09786	0.099217155	-0.001357155
592.08	0.09791	0.099217732	-0.001307732
592.12	0.09903	0.099218309	-0.000188309
592.16	0.0969	0.099218885	-0.002318885
592.2	0.09725	0.099219462	-0.001969462
592.24	0.10005	0.099220039	0.000829961
592.28	0.09435	0.099220615	-0.004870615
592.32	0.09226	0.099221192	-0.006961192
592.36	0.1001	0.099221769	0.000878231
592.4	0.10066	0.099222345	0.001437655
592.44	0.0915	0.099222922	-0.007722922
592.48	0.0917	0.099223499	-0.007523499
592.52	0.09822	0.099224076	-0.001004076
592.56	0.1001	0.099224652	0.000875348
592.6	0.09797	0.099225229	-0.001255229
592.64	0.09511	0.099225806	-0.004115806
592.68	0.10071	0.099226382	0.001483618
592.72	0.10275	0.099226959	0.003523041
592.76	0.1029	0.099227536	0.003672464
592.8	0.09455	0.099228113	-0.004678113
592.84	0.1001	0.099228689	0.000871311
592.88	0.0972	0.099229266	-0.002029266
592.92	0.097	0.099229843	-0.002229843
592.96	0.09725	0.099230419	-0.001980419
593	0.09522	0.099230996	-0.004010996
593.04	0.09791	0.099231573	-0.001321573
593.08	0.09807	0.09923215	-0.00116215
593.12	0.10647	0.099232726	0.007237274
593.16	0.09598	0.099233303	-0.003253303
593.2	0.09893	0.09923388	-0.00030388
593.24	0.09588	0.099234456	-0.003354456
593.28	0.10021	0.099235033	0.000974967
593.32	0.1	0.09923561	0.00076439
593.36	0.09995	0.099236186	0.000713814
593.4	0.1001	0.099236763	0.000863237
593.44	0.10484	0.09923734	0.00560266
593.48	0.09527	0.099237917	-0.003967917
593.52	0.0942	0.099238493	-0.005038493
593.56	0.09522	0.09923907	-0.00401907
593.6	0.10071	0.099239647	0.001470353
593.64	0.10087	0.099240223	0.001629777
593.68	0.09613	0.0992408	-0.0031108
593.72	0.09995	0.099241377	0.000708623
593.76	0.10316	0.099241954	0.003918046
593.8	0.10173	0.09924253	0.00248747
593.84	0.10066	0.099243107	0.001416893
593.88	0.09975	0.099243684	0.000506316
593.92	0.10097	0.09924426	0.00172574
593.96	0.10082	0.099244837	0.001575163
594	0.10077	0.099245414	0.001524586
594.04	0.09522	0.099245991	-0.004025991
594.08	0.10056	0.099246567	0.001313433
594.12	0.09715	0.099247144	-0.002097144
594.16	0.10087	0.099247721	0.001622279
594.2	0.09603	0.099248297	-0.003218297
594.24	0.09608	0.099248874	-0.003168874
594.28	0.10082	0.099249451	0.001570549
594.32	0.10433	0.099250027	0.005079973
594.36	0.09975	0.099250604	0.000499396
594.4	0.10387	0.099251181	0.004618819
594.44	0.09679	0.099251758	-0.002461758
594.48	0.09893	0.099252334	-0.000322334
594.52	0.10026	0.099252911	0.001007089
594.56	0.09995	0.099253488	0.000696512
594.6	0.09527	0.099254064	-0.003984064
594.64	0.09511	0.099254641	-0.004144641
594.68	0.10061	0.099255218	0.001354782
594.72	0.09903	0.099255795	-0.000225795
594.76	0.1001	0.099256371	0.000843629
594.8	0.09725	0.099256948	-0.002006948
594.84	0.0969	0.099257525	-0.002357525
594.88	0.09812	0.099258101	-0.001138101
594.92	0.09639	0.099258678	-0.002868678
594.96	0.10092	0.099259255	0.001660745
595	0.09354	0.099259832	-0.005719832
595.04	0.09786	0.099260408	-0.001400408
595.08	0.09802	0.099260985	-0.001240985
595.12	0.09802	0.099261562	-0.001241562
595.16	0.10087	0.099262138	0.001607862
595.2	0.10382	0.099262715	0.004557285
595.24	0.0972	0.099263292	-0.002063292
595.28	0.09807	0.099263868	-0.001193868
595.32	0.09425	0.099264445	-0.005014445
595.36	0.09919	0.099265022	-7.50219E-05
595.4	0.09807	0.099265599	-0.001195599
595.44	0.09802	0.099266175	-0.001246175
595.48	0.09995	0.099266752	0.000683248
595.52	0.09898	0.099267329	-0.000287329
595.56	0.10082	0.099267905	0.001552095
595.6	0.1028	0.099268482	0.003531518
595.64	0.09598	0.099269059	-0.003289059
595.68	0.10214	0.099269636	0.002870364
595.72	0.10178	0.099270212	0.002509788
595.76	0.09878	0.099270789	-0.000490789
595.8	0.10448	0.099271366	0.005208634
595.84	0.09919	0.099271942	-8.19424E-05
595.88	0.09623	0.099272519	-0.003042519
595.92	0.10087	0.099273096	0.001596904
595.96	0.10183	0.099273672	0.002556328
596	0.10183	0.099274249	0.002555751
596.04	0.10168	0.099274826	0.002405174
596.08	0.10458	0.099275403	0.005304597
596.12	0.10168	0.099275979	0.002404021
596.16	0.10082	0.099276556	0.001543444
596.2	0.09318	0.099277133	-0.006097133
596.24	0.09919	0.099277709	-8.77094E-05
596.28	0.1001	0.099278286	0.000821714
596.32	0.1	0.099278863	0.000721137
596.36	0.09898	0.09927944	-0.00029944
596.4	0.09613	0.099280016	-0.003150016
596.44	0.09506	0.099280593	-0.004220593
596.48	0.10178	0.09928117	0.00249883
596.52	0.09791	0.099281746	-0.001371746
596.56	0.09613	0.099282323	-0.003152323
596.6	0.09608	0.0992829	-0.0032029
596.64	0.09634	0.099283477	-0.002943477
596.68	0.09603	0.099284053	-0.003254053
596.72	0.10372	0.09928463	0.00443537
596.76	0.10464	0.099285207	0.005354793
596.8	0.10178	0.099285783	0.002494217
596.84	0.0943	0.09928636	-0.00498636
596.88	0.0971	0.099286937	-0.002186937
596.92	0.0972	0.099287513	-0.002087513
596.96	0.0944	0.09928809	-0.00488809
597	0.1053	0.099288667	0.006011333
597.04	0.10301	0.099289244	0.003720756
597.08	0.09898	0.09928982	-0.00030982
597.12	0.1	0.099290397	0.000709603
597.16	0.09695	0.099290974	-0.002340974
597.2	0.09695	0.09929155	-0.00234155
597.24	0.09985	0.099292127	0.000557873
597.28	0.0971	0.099292704	-0.002192704
597.32	0.10367	0.099293281	0.004376719
597.36	0.09527	0.099293857	-0.004023857
597.4	0.10082	0.099294434	0.001525566
597.44	0.10311	0.099295011	0.003814989
597.48	0.10265	0.099295587	0.003354413
597.52	0.10443	0.099296164	0.005133836
597.56	0.09802	0.099296741	-0.001276741
597.6	0.09618	0.099297318	-0.003117318
597.64	0.10443	0.099297894	0.005132106
597.68	0.09888	0.099298471	-0.000418471
597.72	0.09903	0.099299048	-0.000269048
597.76	0.0998	0.099299624	0.000500376
597.8	0.0999	0.099300201	0.000599799
597.84	0.09308	0.099300778	-0.006220778
597.88	0.1055	0.099301354	0.006198646
597.92	0.10005	0.099301931	0.000748069
597.96	0.1027	0.099302508	0.003397492
598	0.1	0.099303085	0.000696915
598.04	0.10764	0.099303661	0.008336339
598.08	0.10744	0.099304238	0.008135762
598.12	0.09786	0.099304815	-0.001444815
598.16	0.10138	0.099305391	0.002074609
598.2	0.10275	0.099305968	0.003444032
598.24	0.09985	0.099306545	0.000543455
598.28	0.10015	0.099307122	0.000842878
598.32	0.09705	0.099307698	-0.002257698
598.36	0.09888	0.099308275	-0.000428275
598.4	0.09903	0.099308852	-0.000278852
598.44	0.09903	0.099309428	-0.000279428
598.48	0.09797	0.099310005	-0.001340005
598.52	0.09247	0.099310582	-0.006840582
598.56	0.09903	0.099311159	-0.000281159
598.6	0.10178	0.099311735	0.002468265
598.64	0.09786	0.099312312	-0.001452312
598.68	0.09807	0.099312889	-0.001242889
598.72	0.09975	0.099313465	0.000436535
598.76	0.10189	0.099314042	0.002575958
598.8	0.10265	0.099314619	0.003335381
598.84	0.09893	0.099315195	-0.000385195
598.88	0.10275	0.099315772	0.003434228
598.92	0.10367	0.099316349	0.004353651
598.96	0.10357	0.099316926	0.004253074
599	0.10479	0.099317502	0.005472498
599.04	0.09924	0.099318079	-7.8079E-05
599.08	0.09644	0.099318656	-0.002878656
599.12	0.10377	0.099319232	0.004450768
599.16	0.10647	0.099319809	0.007150191
599.2	0.09888	0.099320386	-0.000440386
599.24	0.09705	0.099320963	-0.002270963
599.28	0.0971	0.099321539	-0.002221539
599.32	0.09909	0.099322116	-0.000232116
599.36	0.10082	0.099322693	0.001497307
599.4	0.09878	0.099323269	-0.000543269
599.44	0.09608	0.099323846	-0.003243846
599.48	0.09517	0.099324423	-0.004154423
599.52	0.09898	0.099325	-0.000345
599.56	0.09883	0.099325576	-0.000495576
599.6	0.10209	0.099326153	0.002763847
599.64	0.09791	0.09932673	-0.00141673
599.68	0.0943	0.099327306	-0.005027306
599.72	0.09781	0.099327883	-0.001517883
599.76	0.10652	0.09932846	0.00719154
599.8	0.09527	0.099329036	-0.004059036
599.84	0.1026	0.099329613	0.003270387
599.88	0.1028	0.09933019	0.00346981
599.92	0.10005	0.099330767	0.000719233
599.96	0.0942	0.099331343	-0.005131343
600	0.09415	0.09933192	-0.00518192
600.04	0.09893	0.099332497	-0.000402497
600.08	0.09313	0.099333073	-0.006203073
600.12	0.0971	0.09933365	-0.00223365
600.16	0.0971	0.099334227	-0.002234227
600.2	0.09791	0.099334804	-0.001424804
600.24	0.09313	0.09933538	-0.00620538
600.28	0.09608	0.099335957	-0.003255957
600.32	0.10357	0.099336534	0.004233466
600.36	0.1	0.09933711	0.00066289
600.4	0.09603	0.099337687	-0.003307687
600.44	0.09634	0.099338264	-0.002998264
600.48	0.09542	0.09933884	-0.00391884
600.52	0.09348	0.099339417	-0.005859417
600.56	0.10255	0.099339994	0.003210006
600.6	0.09613	0.099340571	-0.003210571
600.64	0.09797	0.099341147	-0.001371147
600.68	0.09333	0.099341724	-0.006011724
600.72	0.0972	0.099342301	-0.002142301
600.76	0.0969	0.099342877	-0.002442877
600.8	0.10178	0.099343454	0.002436546
600.84	0.09878	0.099344031	-0.000564031
600.88	0.10362	0.099344608	0.004275392
600.92	0.09399	0.099345184	-0.005355184
600.96	0.09797	0.099345761	-0.001375761
601	0.09837	0.099346338	-0.000976338
601.04	0.09781	0.099346914	-0.001536914
601.08	0.09634	0.099347491	-0.003007491
601.12	0.09231	0.099348068	-0.007038068
601.16	0.1001	0.099348645	0.000751355
601.2	0.09888	0.099349221	-0.000469221
601.24	0.09532	0.099349798	-0.004029798
601.28	0.097	0.099350375	-0.002350375
601.32	0.097	0.099350951	-0.002350951
601.36	0.10087	0.099351528	0.001518472
601.4	0.09415	0.099352105	-0.005202105
601.44	0.09695	0.099352681	-0.002402681
601.48	0.09145	0.099353258	-0.007903258
601.52	0.09914	0.099353835	-0.000213835
601.56	0.09995	0.099354412	0.000595588
601.6	0.09903	0.099354988	-0.000324988
601.64	0.09878	0.099355565	-0.000575565
601.68	0.09629	0.099356142	-0.003066142
601.72	0.10071	0.099356718	0.001353282
601.76	0.09817	0.099357295	-0.001187295
601.8	0.09613	0.099357872	-0.003227872
601.84	0.10474	0.099358449	0.005381551
601.88	0.10077	0.099359025	0.001410975
601.92	0.10082	0.099359602	0.001460398
601.96	0.0969	0.099360179	-0.002460179
602	0.09786	0.099360755	-0.001500755
602.04	0.09807	0.099361332	-0.001291332
602.08	0.09588	0.099361909	-0.003481909
602.12	0.10092	0.099362486	0.001557514
602.16	0.10077	0.099363062	0.001406938
602.2	0.10071	0.099363639	0.001346361
602.24	0.10082	0.099364216	0.001455784
602.28	0.09501	0.099364792	-0.004354792
602.32	0.10183	0.099365369	0.002464631
602.36	0.09873	0.099365946	-0.000635946
602.4	0.09812	0.099366522	-0.001246522
602.44	0.09883	0.099367099	-0.000537099
602.48	0.0998	0.099367676	0.000432324
602.52	0.09975	0.099368253	0.000381747
602.56	0.10189	0.099368829	0.002521171
602.6	0.10474	0.099369406	0.005370594
602.64	0.10178	0.099369983	0.002410017
602.68	0.09598	0.099370559	-0.003390559
602.72	0.09797	0.099371136	-0.001401136
602.76	0.09868	0.099371713	-0.000691713
602.8	0.09888	0.09937229	-0.00049229
602.84	0.10097	0.099372866	0.001597134
602.88	0.10092	0.099373443	0.001546557
602.92	0.10102	0.09937402	0.00164598
602.96	0.09542	0.099374596	-0.003954596
603	0.10077	0.099375173	0.001394827
603.04	0.10474	0.09937575	0.00536425
603.08	0.1027	0.099376327	0.003323673
603.12	0.1029	0.099376903	0.003523097
603.16	0.09781	0.09937748	-0.00156748
603.2	0.10183	0.099378057	0.002451943
603.24	0.09715	0.099378633	-0.002228633
603.28	0.1026	0.09937921	0.00322079
603.32	0.10901	0.099379787	0.009630213
603.36	0.10204	0.099380363	0.002659637
603.4	0.10194	0.09938094	0.00255906
603.44	0.1001	0.099381517	0.000718483
603.48	0.09735	0.099382094	-0.002032094
603.52	0.1027	0.09938267	0.00331733
603.56	0.10387	0.099383247	0.004486753
603.6	0.10555	0.099383824	0.006166176
603.64	0.09888	0.0993844	-0.0005044
603.68	0.09603	0.099384977	-0.003354977
603.72	0.09613	0.099385554	-0.003255554
603.76	0.09883	0.099386131	-0.000556131
603.8	0.10163	0.099386707	0.002243293
603.84	0.09496	0.099387284	-0.004427284
603.88	0.10245	0.099387861	0.003062139
603.92	0.10545	0.099388437	0.006061563
603.96	0.10168	0.099389014	0.002290986
604	0.10168	0.099389591	0.002290409
604.04	0.09791	0.099390168	-0.001480168
604.08	0.1028	0.099390744	0.003409256
604.12	0.10183	0.099391321	0.002438679
604.16	0.09924	0.099391898	-0.000151898
604.2	0.10469	0.099392474	0.005297526
604.24	0.09903	0.099393051	-0.000363051
604.28	0.09868	0.099393628	-0.000713628
604.32	0.10092	0.099394204	0.001525796
604.36	0.09883	0.099394781	-0.000564781
604.4	0.10367	0.099395358	0.004274642
604.44	0.10071	0.099395935	0.001314065
604.48	0.0969	0.099396511	-0.002496511
604.52	0.10189	0.099397088	0.002492912
604.56	0.10087	0.099397665	0.001472335
604.6	0.10077	0.099398241	0.001371759
604.64	0.10117	0.099398818	0.001771182
604.68	0.09817	0.099399395	-0.001229395
604.72	0.10652	0.099399972	0.007120028
604.76	0.10031	0.099400548	0.000909452
604.8	0.1028	0.099401125	0.003398875
604.84	0.10265	0.099401702	0.003248298
604.88	0.1026	0.099402278	0.003197722
604.92	0.09705	0.099402855	-0.002352855
604.96	0.09914	0.099403432	-0.000263432
605	0.09517	0.099404009	-0.004234009
605.04	0.09715	0.099404585	-0.002254585
605.08	0.10295	0.099405162	0.003544838
605.12	0.09517	0.099405739	-0.004235739
605.16	0.09511	0.099406315	-0.004296315
605.2	0.10545	0.099406892	0.006043108
605.24	0.10082	0.099407469	0.001412531
605.28	0.09242	0.099408045	-0.006988045
605.32	0.09323	0.099408622	-0.006178622
605.36	0.09802	0.099409199	-0.001389199
605.4	0.09812	0.099409776	-0.001289776
605.44	0.09883	0.099410352	-0.000580352
605.48	0.09903	0.099410929	-0.000380929
605.52	0.09038	0.099411506	-0.009031506
605.56	0.09623	0.099412082	-0.003182082
605.6	0.09883	0.099412659	-0.000582659
605.64	0.10545	0.099413236	0.006036764
605.68	0.1	0.099413813	0.000586187
605.72	0.0943	0.099414389	-0.005114389
605.76	0.0944	0.099414966	-0.005014966
605.8	0.09791	0.099415543	-0.001505543
605.84	0.1027	0.099416119	0.003283881
605.88	0.09501	0.099416696	-0.004406696
605.92	0.09898	0.099417273	-0.000437273
605.96	0.09608	0.099417849	-0.003337849
606	0.10077	0.099418426	0.001351574
606.04	0.10087	0.099419003	0.001450997
606.08	0.10066	0.09941958	0.00124042
606.12	0.09751	0.099420156	-0.001910156
606.16	0.09975	0.099420733	0.000329267
606.2	0.09898	0.09942131	-0.00044131
606.24	0.09741	0.099421886	-0.002011886
606.28	0.0973	0.099422463	-0.002122463
606.32	0.09888	0.09942304	-0.00054304
606.36	0.09893	0.099423617	-0.000493617
606.4	0.10178	0.099424193	0.002355807
606.44	0.10077	0.09942477	0.00134523
606.48	0.09603	0.099425347	-0.003395347
606.52	0.09033	0.099425923	-0.009095923
606.56	0.09247	0.0994265	-0.0069565
606.6	0.10285	0.099427077	0.003422923
606.64	0.10265	0.099427654	0.003222346
606.68	0.10077	0.09942823	0.00134177
606.72	0.09705	0.099428807	-0.002378807
606.76	0.10372	0.099429384	0.004290616
606.8	0.09903	0.09942996	-0.00039996
606.84	0.10453	0.099430537	0.005099463
606.88	0.0944	0.099431114	-0.005031114
606.92	0.09797	0.09943169	-0.00146169
606.96	0.09797	0.099432267	-0.001462267
607	0.10632	0.099432844	0.006887156
607.04	0.09898	0.099433421	-0.000453421
607.08	0.10306	0.099433997	0.003626003
607.12	0.10077	0.099434574	0.001335426
607.16	0.10199	0.099435151	0.002554849
607.2	0.10102	0.099435727	0.001584273
607.24	0.10087	0.099436304	0.001433696
607.28	0.10275	0.099436881	0.003313119
607.32	0.09924	0.099437458	-0.000197458
607.36	0.10178	0.099438034	0.002341966
607.4	0.09802	0.099438611	-0.001418611
607.44	0.10107	0.099439188	0.001630812
607.48	0.09995	0.099439764	0.000510236
607.52	0.0969	0.099440341	-0.002540341
607.56	0.09715	0.099440918	-0.002290918
607.6	0.09613	0.099441495	-0.003311495
607.64	0.09522	0.099442071	-0.004222071
607.68	0.1029	0.099442648	0.003457352
607.72	0.09985	0.099443225	0.000406775
607.76	0.10214	0.099443801	0.002696199
607.8	0.09791	0.099444378	-0.001534378
607.84	0.09832	0.099444955	-0.001124955
607.88	0.097	0.099445531	-0.002445531
607.92	0.10082	0.099446108	0.001373892
607.96	0.09511	0.099446685	-0.004336685
608	0.09903	0.099447262	-0.000417262
608.04	0.09888	0.099447838	-0.000567838
608.08	0.09685	0.099448415	-0.002598415
608.12	0.097	0.099448992	-0.002448992
608.16	0.09517	0.099449568	-0.004279568
608.2	0.1	0.099450145	0.000549855
608.24	0.09797	0.099450722	-0.001480722
608.28	0.09343	0.099451299	-0.006021299
608.32	0.1029	0.099451875	0.003448125
608.36	0.09598	0.099452452	-0.003472452
608.4	0.10744	0.099453029	0.007986971
608.44	0.10718	0.099453605	0.007726395
608.48	0.10189	0.099454182	0.002435818
608.52	0.10071	0.099454759	0.001255241
608.56	0.10102	0.099455336	0.001564664
608.6	0.0945	0.099455912	-0.004955912
608.64	0.09552	0.099456489	-0.003936489
608.68	0.1026	0.099457066	0.003142934
608.72	0.1028	0.099457642	0.003342358
608.76	0.09903	0.099458219	-0.000428219
608.8	0.09629	0.099458796	-0.003168796
608.84	0.09797	0.099459372	-0.001489372
608.88	0.10071	0.099459949	0.001250051
608.92	0.09104	0.099460526	-0.008420526
608.96	0.09985	0.099461103	0.000388897
609	0.1	0.099461679	0.000538321
609.04	0.097	0.099462256	-0.002462256
609.08	0.0999	0.099462833	0.000437167
609.12	0.1027	0.099463409	0.003236591
609.16	0.09532	0.099463986	-0.004143986
609.2	0.09623	0.099464563	-0.003234563
609.24	0.1	0.09946514	0.00053486
609.28	0.10082	0.099465716	0.001354284
609.32	0.10046	0.099466293	0.000993707
609.36	0.09725	0.09946687	-0.00221687
609.4	0.09888	0.099467446	-0.000587446
609.44	0.09807	0.099468023	-0.001398023
609.48	0.10005	0.0994686	0.0005814
609.52	0.09532	0.099469177	-0.004149177
609.56	0.10097	0.099469753	0.001500247
609.6	0.10077	0.09947033	0.00129967
609.64	0.10301	0.099470907	0.003539093
609.68	0.09898	0.099471483	-0.000491483
609.72	0.1	0.09947206	0.00052794
609.76	0.09735	0.099472637	-0.002122637
609.8	0.10199	0.099473213	0.002516787
609.84	0.09517	0.09947379	-0.00430379
609.88	0.09883	0.099474367	-0.000644367
609.92	0.09893	0.099474944	-0.000544944
609.96	0.09995	0.09947552	0.00047448
610	0.0969	0.099476097	-0.002576097
610.04	0.10199	0.099476674	0.002513326
610.08	0.09812	0.09947725	-0.00135725
610.12	0.10469	0.099477827	0.005212173
610.16	0.10382	0.099478404	0.004341596
610.2	0.10377	0.099478981	0.004291019
610.24	0.10372	0.099479557	0.004240443
610.28	0.09608	0.099480134	-0.003400134
610.32	0.09873	0.099480711	-0.000750711
610.36	0.10306	0.099481287	0.003578713
610.4	0.09445	0.099481864	-0.005031864
610.44	0.10112	0.099482441	0.001637559
610.48	0.10046	0.099483017	0.000976983
610.52	0.10077	0.099483594	0.001286406
610.56	0.09613	0.099484171	-0.003354171
610.6	0.09226	0.099484748	-0.007224748
610.64	0.10581	0.099485324	0.006324676
610.68	0.10005	0.099485901	0.000564099
610.72	0.09634	0.099486478	-0.003146478
610.76	0.0943	0.099487054	-0.005187054
610.8	0.09435	0.099487631	-0.005137631
610.84	0.10082	0.099488208	0.001331792
610.88	0.09985	0.099488785	0.000361215
610.92	0.09613	0.099489361	-0.003359361
610.96	0.09695	0.099489938	-0.002539938
611	0.10178	0.099490515	0.002289485
611.04	0.10525	0.099491091	0.005758909
611.08	0.10586	0.099491668	0.006368332
611.12	0.09394	0.099492245	-0.005552245
611.16	0.09822	0.099492822	-0.001272822
611.2	0.10443	0.099493398	0.004936602
611.24	0.10214	0.099493975	0.002646025
611.28	0.09802	0.099494552	-0.001474552
611.32	0.10163	0.099495128	0.002134872
611.36	0.09405	0.099495705	-0.005445705
611.4	0.0942	0.099496282	-0.005296282
611.44	0.1028	0.099496858	0.003303142
611.48	0.09878	0.099497435	-0.000717435
611.52	0.09888	0.099498012	-0.000618012
611.56	0.1025	0.099498589	0.003001411
611.6	0.09807	0.099499165	-0.001429165
611.64	0.10275	0.099499742	0.003250258
611.68	0.1027	0.099500319	0.003199681
611.72	0.10295	0.099500895	0.003449105
611.76	0.09807	0.099501472	-0.001431472
611.8	0.09893	0.099502049	-0.000572049
611.84	0.10112	0.099502626	0.001617374
611.88	0.09608	0.099503202	-0.003423202
611.92	0.0971	0.099503779	-0.002403779
611.96	0.09705	0.099504356	-0.002454356
612	0.09888	0.099504932	-0.000624932
612.04	0.09914	0.099505509	-0.000365509
612.08	0.09786	0.099506086	-0.001646086
612.12	0.09511	0.099506663	-0.004396663
612.16	0.10158	0.099507239	0.002072761
612.2	0.09786	0.099507816	-0.001647816
612.24	0.09797	0.099508393	-0.001538393
612.28	0.09817	0.099508969	-0.001338969
612.32	0.09598	0.099509546	-0.003529546
612.36	0.10275	0.099510123	0.003239877
612.4	0.09618	0.099510699	-0.003330699
612.44	0.09629	0.099511276	-0.003221276
612.48	0.10346	0.099511853	0.003948147
612.52	0.10194	0.09951243	0.00242757
612.56	0.10183	0.099513006	0.002316994
612.6	0.09236	0.099513583	-0.007153583
612.64	0.10637	0.09951416	0.00685584
612.68	0.10301	0.099514736	0.003495264
612.72	0.10097	0.099515313	0.001454687
612.76	0.10178	0.09951589	0.00226411
612.8	0.09522	0.099516467	-0.004296467
612.84	0.09527	0.099517043	-0.004247043
612.88	0.09405	0.09951762	-0.00546762
612.92	0.10082	0.099518197	0.001301803
612.96	0.09705	0.099518773	-0.002468773
613	0.09603	0.09951935	-0.00348935
613.04	0.09975	0.099519927	0.000230073
613.08	0.10097	0.099520504	0.001449496
613.12	0.097	0.09952108	-0.00252108
613.16	0.09705	0.099521657	-0.002471657
613.2	0.0972	0.099522234	-0.002322234
613.24	0.09919	0.09952281	-0.00033281
613.28	0.10255	0.099523387	0.003026613
613.32	0.09685	0.099523964	-0.002673964
613.36	0.09807	0.09952454	-0.00145454
613.4	0.10458	0.099525117	0.005054883
613.44	0.10464	0.099525694	0.005114306
613.48	0.09791	0.099526271	-0.001616271
613.52	0.09527	0.099526847	-0.004256847
613.56	0.10204	0.099527424	0.002512576
613.6	0.10082	0.099528001	0.001291999
613.64	0.10275	0.099528577	0.003221423
613.68	0.09893	0.099529154	-0.000599154
613.72	0.09506	0.099529731	-0.004469731
613.76	0.09527	0.099530308	-0.004260308
613.8	0.09705	0.099530884	-0.002480884
613.84	0.09425	0.099531461	-0.005281461
613.88	0.09995	0.099532038	0.000417962
613.92	0.10097	0.099532614	0.001437386
613.96	0.09898	0.099533191	-0.000553191
614	0.09791	0.099533768	-0.001623768
614.04	0.09781	0.099534345	-0.001724345
614.08	0.09812	0.099534921	-0.001414921
614.12	0.09522	0.099535498	-0.004315498
614.16	0.09791	0.099536075	-0.001626075
614.2	0.09786	0.099536651	-0.001676651
614.24	0.09995	0.099537228	0.000412772
614.28	0.097	0.099537805	-0.002537805
614.32	0.09705	0.099538381	-0.002488381
614.36	0.09802	0.099538958	-0.001518958
614.4	0.10387	0.099539535	0.004330465
614.44	0.09629	0.099540112	-0.003250112
614.48	0.0969	0.099540688	-0.002640688
614.52	0.09898	0.099541265	-0.000561265
614.56	0.0972	0.099541842	-0.002341842
614.6	0.10331	0.099542418	0.003767582
614.64	0.10357	0.099542995	0.004027005
614.68	0.09608	0.099543572	-0.003463572
614.72	0.10189	0.099544149	0.002345851
614.76	0.09817	0.099544725	-0.001374725
614.8	0.10021	0.099545302	0.000664698
614.84	0.10209	0.099545879	0.002544121
614.88	0.10005	0.099546455	0.000503545
614.92	0.0999	0.099547032	0.000352968
614.96	0.09909	0.099547609	-0.000457609
615	0.10071	0.099548186	0.001161814
615.04	0.09298	0.099548762	-0.006568762
615.08	0.09898	0.099549339	-0.000569339
615.12	0.0999	0.099549916	0.000350084
615.16	0.09552	0.099550492	-0.004030492
615.2	0.09975	0.099551069	0.000198931
615.24	0.09975	0.099551646	0.000198354
615.28	0.10194	0.099552222	0.002387778
615.32	0.10194	0.099552799	0.002387201
615.36	0.09802	0.099553376	-0.001533376
615.4	0.09985	0.099553953	0.000296047
615.44	0.10005	0.099554529	0.000495471
615.48	0.10102	0.099555106	0.001464894
615.52	0.10092	0.099555683	0.001364317
615.56	0.09517	0.099556259	-0.004386259
615.6	0.10341	0.099556836	0.003853164
615.64	0.09985	0.099557413	0.000292587
615.68	0.09623	0.09955799	-0.00332799
615.72	0.09618	0.099558566	-0.003378566
615.76	0.10265	0.099559143	0.003090857
615.8	0.10285	0.09955972	0.00329028
615.84	0.10158	0.099560296	0.002019704
615.88	0.0998	0.099560873	0.000239127
615.92	0.0969	0.09956145	-0.00266145
615.96	0.09623	0.099562026	-0.003332026
616	0.09812	0.099562603	-0.001442603
616.04	0.10357	0.09956318	0.00400682
616.08	0.09909	0.099563757	-0.000473757
616.12	0.09929	0.099564333	-0.000274333
616.16	0.09888	0.09956491	-0.00068491
616.2	0.10265	0.099565487	0.003084513
616.24	0.09527	0.099566063	-0.004296063
616.28	0.09786	0.09956664	-0.00170664
616.32	0.08956	0.099567217	-0.010007217
616.36	0.09247	0.099567794	-0.007097794
616.4	0.09226	0.09956837	-0.00730837
616.44	0.10087	0.099568947	0.001301053
616.48	0.09623	0.099569524	-0.003339524
616.52	0.09802	0.0995701	-0.0015501
616.56	0.09685	0.099570677	-0.002720677
616.6	0.0999	0.099571254	0.000328746
616.64	0.0973	0.099571831	-0.002271831
616.68	0.09715	0.099572407	-0.002422407
616.72	0.10346	0.099572984	0.003887016
616.76	0.09817	0.099573561	-0.001403561
616.8	0.10728	0.099574137	0.007705863
616.84	0.0973	0.099574714	-0.002274714
616.88	0.09822	0.099575291	-0.001355291
616.92	0.10097	0.099575867	0.001394133
616.96	0.09695	0.099576444	-0.002626444
617	0.0972	0.099577021	-0.002377021
617.04	0.10392	0.099577598	0.004342402
617.08	0.10382	0.099578174	0.004241826
617.12	0.09511	0.099578751	-0.004468751
617.16	0.097	0.099579328	-0.002579328
617.2	0.10204	0.099579904	0.002460096
617.24	0.09705	0.099580481	-0.002530481
617.28	0.0969	0.099581058	-0.002681058
617.32	0.09909	0.099581635	-0.000491635
617.36	0.10535	0.099582211	0.005767789
617.4	0.10367	0.099582788	0.004087212
617.44	0.10382	0.099583365	0.004236635
617.48	0.1056	0.099583941	0.006016059
617.52	0.10626	0.099584518	0.006675482
617.56	0.10189	0.099585095	0.002304905
617.6	0.10183	0.099585672	0.002244328
617.64	0.10845	0.099586248	0.008863752
617.68	0.10362	0.099586825	0.004033175
617.72	0.10937	0.099587402	0.009782598
617.76	0.10382	0.099587978	0.004232022
617.8	0.09786	0.099588555	-0.001728555
617.84	0.10657	0.099589132	0.006980868
617.88	0.10632	0.099589708	0.006730292
617.92	0.10525	0.099590285	0.005659715
617.96	0.111	0.099590862	0.011409138
618	0.1109	0.099591439	0.011308561
618.04	0.11207	0.099592015	0.012477985
618.08	0.11029	0.099592592	0.010697408
618.12	0.1084	0.099593169	0.008806831
618.16	0.10825	0.099593745	0.008656255
618.2	0.11283	0.099594322	0.013235678
618.24	0.1057	0.099594899	0.006105101
618.28	0.10856	0.099595476	0.008964524
618.32	0.11691	0.099596052	0.017313948
618.36	0.11146	0.099596629	0.011863371
618.4	0.11222	0.099597206	0.012622794
618.44	0.10912	0.099597782	0.009522218
618.48	0.10952	0.099598359	0.009921641
618.52	0.11497	0.099598936	0.015371064
618.56	0.11044	0.099599513	0.010840487
618.6	0.11309	0.099600089	0.013489911
618.64	0.11054	0.099600666	0.010939334
618.68	0.11237	0.099601243	0.012768757
618.72	0.10545	0.099601819	0.005848181
618.76	0.1054	0.099602396	0.005797604
618.8	0.11018	0.099602973	0.010577027
618.84	0.114	0.099603549	0.014396451
618.88	0.10754	0.099604126	0.007935874
618.92	0.10657	0.099604703	0.006965297
618.96	0.11044	0.09960528	0.01083472
619	0.10637	0.099605856	0.006764144
619.04	0.09802	0.099606433	-0.001586433
619.08	0.09791	0.09960701	-0.00169701
619.12	0.10576	0.099607586	0.006152414
619.16	0.10178	0.099608163	0.002171837
619.2	0.10443	0.09960874	0.00482126
619.24	0.10066	0.099609317	0.001050683
619.28	0.09893	0.099609893	-0.000679893
619.32	0.1055	0.09961047	0.00588953
619.36	0.10535	0.099611047	0.005738953
619.4	0.10163	0.099611623	0.002018377
619.44	0.10647	0.0996122	0.0068578
619.48	0.09807	0.099612777	-0.001542777
619.52	0.10194	0.099613354	0.002326646
619.56	0.10591	0.09961393	0.00629607
619.6	0.09807	0.099614507	-0.001544507
619.64	0.09812	0.099615084	-0.001495084
619.68	0.10621	0.09961566	0.00659434
619.72	0.09995	0.099616237	0.000333763
619.76	0.09995	0.099616814	0.000333186
619.8	0.1027	0.09961739	0.00308261
619.84	0.09705	0.099617967	-0.002567967
619.88	0.10082	0.099618544	0.001201456
619.92	0.10183	0.099619121	0.002210879
619.96	0.10189	0.099619697	0.002270303
620	0.09898	0.099620274	-0.000640274
620.04	0.10555	0.099620851	0.005929149
620.08	0.10082	0.099621427	0.001198573
620.12	0.10163	0.099622004	0.002007996
620.16	0.10082	0.099622581	0.001197419
620.2	0.10077	0.099623158	0.001146842
620.24	0.10051	0.099623734	0.000886266
620.28	0.09445	0.099624311	-0.005174311
620.32	0.1054	0.099624888	0.005775112
620.36	0.10275	0.099625464	0.003124536
620.4	0.09807	0.099626041	-0.001556041
620.44	0.09812	0.099626618	-0.001506618
620.48	0.10362	0.099627194	0.003992806
620.52	0.10387	0.099627771	0.004242229
620.56	0.10015	0.099628348	0.000521652
620.6	0.10214	0.099628925	0.002511075
620.64	0.10097	0.099629501	0.001340499
620.68	0.09903	0.099630078	-0.000600078
620.72	0.10275	0.099630655	0.003119345
620.76	0.1027	0.099631231	0.003068769
620.8	0.10469	0.099631808	0.005058192
620.84	0.10464	0.099632385	0.005007615
620.88	0.10464	0.099632962	0.005007038
620.92	0.10464	0.099633538	0.005006462
620.96	0.10285	0.099634115	0.003215885
621	0.10275	0.099634692	0.003115308
621.04	0.10087	0.099635268	0.001234732
621.08	0.1055	0.099635845	0.005864155
621.12	0.1055	0.099636422	0.005863578
621.16	0.10667	0.099636999	0.007033001
621.2	0.10377	0.099637575	0.004132425
621.24	0.10896	0.099638152	0.009321848
621.28	0.10387	0.099638729	0.004231271
621.32	0.10245	0.099639305	0.002810695
621.36	0.10382	0.099639882	0.004180118
621.4	0.111	0.099640459	0.011359541
621.44	0.1113	0.099641035	0.011658965
621.48	0.11039	0.099641612	0.010748388
621.52	0.11237	0.099642189	0.012727811
621.56	0.11787	0.099642766	0.018227234
621.6	0.12067	0.099643342	0.021026658
621.64	0.11512	0.099643919	0.015476081
621.68	0.11594	0.099644496	0.016295504
621.72	0.11594	0.099645072	0.016294928
621.76	0.12602	0.099645649	0.026374351
621.8	0.12159	0.099646226	0.021943774
621.84	0.11609	0.099646803	0.016443197
621.88	0.12719	0.099647379	0.027542621
621.92	0.13289	0.099647956	0.033242044
621.96	0.13299	0.099648533	0.033341467
622	0.1331	0.099649109	0.033450891
622.04	0.13478	0.099649686	0.035130314
622.08	0.13951	0.099650263	0.039859737
622.12	0.13951	0.09965084	0.03985916
622.16	0.13747	0.099651416	0.037818584
622.2	0.13859	0.099651993	0.038938007
622.24	0.13666	0.09965257	0.03700743
622.28	0.13732	0.099653146	0.037666854
622.32	0.13753	0.099653723	0.037876277
622.36	0.1471	0.0996543	0.0474457
622.4	0.13839	0.099654876	0.038735124
622.44	0.14491	0.099655453	0.045254547
622.48	0.14134	0.09965603	0.04168397
622.52	0.14048	0.099656607	0.040823393
622.56	0.13951	0.099657183	0.039852817
622.6	0.13936	0.09965776	0.03970224
622.64	0.14053	0.099658337	0.040871663
622.68	0.1359	0.099658913	0.036241087
622.72	0.14043	0.09965949	0.04077051
622.76	0.13931	0.099660067	0.039649933
622.8	0.12938	0.099660644	0.029719356
622.84	0.13671	0.09966122	0.03704878
622.88	0.12454	0.099661797	0.024878203
622.92	0.1247	0.099662374	0.025037626
622.96	0.13121	0.09966295	0.03154705
623	0.12449	0.099663527	0.024826473
623.04	0.12358	0.099664104	0.023915896
623.08	0.11609	0.099664681	0.016425319
623.12	0.12072	0.099665257	0.021054743
623.16	0.12072	0.099665834	0.021054166
623.2	0.12077	0.099666411	0.021103589
623.24	0.11018	0.099666987	0.010513013
623.28	0.1083	0.099667564	0.008632436
623.32	0.10825	0.099668141	0.008581859
623.36	0.11278	0.099668717	0.013111283
623.4	0.11614	0.099669294	0.016470706
623.44	0.10652	0.099669871	0.006850129
623.48	0.10647	0.099670448	0.006799552
623.52	0.1056	0.099671024	0.005928976
623.56	0.1027	0.099671601	0.003028399
623.6	0.10082	0.099672178	0.001147822
623.64	0.10647	0.099672754	0.006797246
623.68	0.1056	0.099673331	0.005926669
623.72	0.10071	0.099673908	0.001036092
623.76	0.10071	0.099674485	0.001035515
623.8	0.10107	0.099675061	0.001394939
623.84	0.10178	0.099675638	0.002104362
623.88	0.10183	0.099676215	0.002153785
623.92	0.10189	0.099676791	0.002213209
623.96	0.09786	0.099677368	-0.001817368
624	0.10097	0.099677945	0.001292055
624.04	0.10535	0.099678522	0.005671478
624.08	0.10555	0.099679098	0.005870902
624.12	0.1026	0.099679675	0.002920325
624.16	0.0998	0.099680252	0.000119748
624.2	0.09802	0.099680828	-0.001660828
624.24	0.10265	0.099681405	0.002968595
624.28	0.09791	0.099681982	-0.001771982
624.32	0.10168	0.099682558	0.001997442
624.36	0.10173	0.099683135	0.002046865
624.4	0.10173	0.099683712	0.002046288
624.44	0.10397	0.099684289	0.004285711
624.48	0.09501	0.099684865	-0.004674865
624.52	0.10285	0.099685442	0.003164558
624.56	0.10092	0.099686019	0.001233981
624.6	0.10474	0.099686595	0.005053405
624.64	0.09236	0.099687172	-0.007327172
624.68	0.09247	0.099687749	-0.007217749
624.72	0.1056	0.099688326	0.005911674
624.76	0.0999	0.099688902	0.000211098
624.8	0.09491	0.099689479	-0.004779479
624.84	0.10708	0.099690056	0.007389944
624.88	0.1	0.099690632	0.000309368
624.92	0.09888	0.099691209	-0.000811209
624.96	0.09909	0.099691786	-0.000601786
625	0.10087	0.099692363	0.001177638
625.04	0.10458	0.099692939	0.004887061
625.08	0.09985	0.099693516	0.000156484
625.12	0.10087	0.099694093	0.001175907
625.16	0.09807	0.099694669	-0.001624669
625.2	0.09807	0.099695246	-0.001625246
625.24	0.10194	0.099695823	0.002244177
625.28	0.10168	0.099696399	0.001983601
625.32	0.10341	0.099696976	0.003713024
625.36	0.1	0.099697553	0.000302447
625.4	0.10377	0.09969813	0.00407187
625.44	0.10626	0.099698706	0.006561294
625.48	0.10087	0.099699283	0.001170717
625.52	0.09715	0.09969986	-0.00254986
625.56	0.0972	0.099700436	-0.002500436
625.6	0.10209	0.099701013	0.002388987
625.64	0.10194	0.09970159	0.00223841
625.68	0.10285	0.099702167	0.003147833
625.72	0.10077	0.099702743	0.001067257
625.76	0.10077	0.09970332	0.00106668
625.8	0.0999	0.099703897	0.000196103
625.84	0.1	0.099704473	0.000295527
625.88	0.10077	0.09970505	0.00106495
625.92	0.09685	0.099705627	-0.002855627
625.96	0.10066	0.099706203	0.000953797
626	0.0943	0.09970678	-0.00540678
626.04	0.10657	0.099707357	0.006862643
626.08	0.09903	0.099707934	-0.000677934
626.12	0.10458	0.09970851	0.00487149
626.16	0.10438	0.099709087	0.004670913
626.2	0.10275	0.099709664	0.003040336
626.24	0.10178	0.09971024	0.00206976
626.28	0.10031	0.099710817	0.000599183
626.32	0.09985	0.099711394	0.000138606
626.36	0.10331	0.099711971	0.003598029
626.4	0.09812	0.099712547	-0.001592547
626.44	0.09817	0.099713124	-0.001543124
626.48	0.09873	0.099713701	-0.000983701
626.52	0.09898	0.099714277	-0.000734277
626.56	0.09893	0.099714854	-0.000784854
626.6	0.10194	0.099715431	0.002224569
626.64	0.10092	0.099716008	0.001203992
626.68	0.10066	0.099716584	0.000943416
626.72	0.09898	0.099717161	-0.000737161
626.76	0.09909	0.099717738	-0.000627738
626.8	0.10438	0.099718314	0.004661686
626.84	0.09893	0.099718891	-0.000788891
626.88	0.10005	0.099719468	0.000330532
626.92	0.10071	0.099720044	0.000989956
626.96	0.09914	0.099720621	-0.000580621
627	0.09975	0.099721198	2.88021E-05
627.04	0.1	0.099721775	0.000278225
627.08	0.10071	0.099722351	0.000987649
627.12	0.0998	0.099722928	7.7072E-05
627.16	0.10759	0.099723505	0.007866495
627.2	0.10733	0.099724081	0.007605919
627.24	0.09593	0.099724658	-0.003794658
627.28	0.10377	0.099725235	0.004044765
627.32	0.10372	0.099725812	0.003994188
627.36	0.10723	0.099726388	0.007503612
627.4	0.10178	0.099726965	0.002053035
627.44	0.10372	0.099727542	0.003992458
627.48	0.1055	0.099728118	0.005771882
627.52	0.10087	0.099728695	0.001141305
627.56	0.10265	0.099729272	0.002920728
627.6	0.10922	0.099729849	0.009490151
627.64	0.10922	0.099730425	0.009489575
627.68	0.10754	0.099731002	0.007808998
627.72	0.10489	0.099731579	0.005158421
627.76	0.1111	0.099732155	0.011367845
627.8	0.1113	0.099732732	0.011567268
627.84	0.10733	0.099733309	0.007596691
627.88	0.1055	0.099733885	0.005766115
627.92	0.1055	0.099734462	0.005765538
627.96	0.1112	0.099735039	0.011464961
628	0.11395	0.099735616	0.014214384
628.04	0.10932	0.099736192	0.009583808
628.08	0.10642	0.099736769	0.006683231
628.12	0.10209	0.099737346	0.002352654
628.16	0.10749	0.099737922	0.007752078
628.2	0.10749	0.099738499	0.007751501
628.24	0.10728	0.099739076	0.007540924
628.28	0.1139	0.099739653	0.014160347
628.32	0.11024	0.099740229	0.010499771
628.36	0.11029	0.099740806	0.010549194
628.4	0.10759	0.099741383	0.007848617
628.44	0.11018	0.099741959	0.010438041
628.48	0.11125	0.099742536	0.011507464
628.52	0.111	0.099743113	0.011256887
628.56	0.11507	0.09974369	0.01532631
628.6	0.11884	0.099744266	0.019095734
628.64	0.11212	0.099744843	0.012375157
628.68	0.1137	0.09974542	0.01395458
628.72	0.11212	0.099745996	0.012374004
628.76	0.11314	0.099746573	0.013393427
628.8	0.11293	0.09974715	0.01318285
628.84	0.11034	0.099747726	0.010592274
628.88	0.1137	0.099748303	0.013951697
628.92	0.11477	0.09974888	0.01502112
628.96	0.10362	0.099749457	0.003870543
629	0.10998	0.099750033	0.010229967
629.04	0.10927	0.09975061	0.00951939
629.08	0.11105	0.099751187	0.011298813
629.12	0.1111	0.099751763	0.011348237
629.16	0.10825	0.09975234	0.00849766
629.2	0.10484	0.099752917	0.005087083
629.24	0.10738	0.099753494	0.007626506
629.28	0.10957	0.09975407	0.00981593
629.32	0.11034	0.099754647	0.010585353
629.36	0.1084	0.099755224	0.008644776
629.4	0.10861	0.0997558	0.0088542
629.44	0.10438	0.099756377	0.004623623
629.48	0.10637	0.099756954	0.006613046
629.52	0.10453	0.099757531	0.004772469
629.56	0.1027	0.099758107	0.002941893
629.6	0.10275	0.099758684	0.002991316
629.64	0.09741	0.099759261	-0.002349261
629.68	0.0971	0.099759837	-0.002659837
629.72	0.1	0.099760414	0.000239586
629.76	0.10005	0.099760991	0.000289009
629.8	0.10458	0.099761567	0.004818433
629.84	0.09807	0.099762144	-0.001692144
629.88	0.10265	0.099762721	0.002887279
629.92	0.097	0.099763298	-0.002763298
629.96	0.09863	0.099763874	-0.001133874
630	0.09868	0.099764451	-0.001084451
630.04	0.09893	0.099765028	-0.000835028
630.08	0.10183	0.099765604	0.002064396
630.12	0.09797	0.099766181	-0.001796181
630.16	0.09537	0.099766758	-0.004396758
630.2	0.09909	0.099767335	-0.000677335
630.24	0.09807	0.099767911	-0.001697911
630.28	0.09797	0.099768488	-0.001798488
630.32	0.11136	0.099769065	0.011590935
630.36	0.10194	0.099769641	0.002170359
630.4	0.09888	0.099770218	-0.000890218
630.44	0.10077	0.099770795	0.000999205
630.48	0.09883	0.099771371	-0.000941371
630.52	0.09695	0.099771948	-0.002821948
630.56	0.10194	0.099772525	0.002167475
630.6	0.10219	0.099773102	0.002416898
630.64	0.09802	0.099773678	-0.001753678
630.68	0.09822	0.099774255	-0.001554255
630.72	0.09629	0.099774832	-0.003484832
630.76	0.09791	0.099775408	-0.001865408
630.8	0.09598	0.099775985	-0.003795985
630.84	0.09797	0.099776562	-0.001806562
630.88	0.09807	0.099777139	-0.001707139
630.92	0.1028	0.099777715	0.003022285
630.96	0.10077	0.099778292	0.000991708
631	0.09812	0.099778869	-0.001658869
631.04	0.10163	0.099779445	0.001850555
631.08	0.09924	0.099780022	-0.000540022
631.12	0.09547	0.099780599	-0.004310599
631.16	0.09496	0.099781176	-0.004821176
631.2	0.09593	0.099781752	-0.003851752
631.24	0.09898	0.099782329	-0.000802329
631.28	0.1028	0.099782906	0.003017094
631.32	0.09333	0.099783482	-0.006453482
631.36	0.10209	0.099784059	0.002305941
631.4	0.10402	0.099784636	0.004235364
631.44	0.10265	0.099785212	0.002864788
631.48	0.1029	0.099785789	0.003114211
631.52	0.10448	0.099786366	0.004693634
631.56	0.11227	0.099786943	0.012483057
631.6	0.1083	0.099787519	0.008512481
631.64	0.0998	0.099788096	1.1904E-05
631.68	0.11227	0.099788673	0.012481327
631.72	0.1084	0.099789249	0.008610751
631.76	0.10861	0.099789826	0.008820174
631.8	0.10474	0.099790403	0.004949597
631.84	0.11008	0.09979098	0.01028902
631.88	0.10647	0.099791556	0.006678444
631.92	0.11879	0.099792133	0.018997867
631.96	0.11095	0.09979271	0.01115729
632	0.11105	0.099793286	0.011256714
632.04	0.1111	0.099793863	0.011306137
632.08	0.11186	0.09979444	0.01206556
632.12	0.11385	0.099795017	0.014054983
632.16	0.11385	0.099795593	0.014054407
632.2	0.11762	0.09979617	0.01782383
632.24	0.11207	0.099796747	0.012273253
632.28	0.11614	0.099797323	0.016342677
632.32	0.11813	0.0997979	0.0183321
632.36	0.11782	0.099798477	0.018021523
632.4	0.11202	0.099799053	0.012220947
632.44	0.11976	0.09979963	0.01996037
632.48	0.11298	0.099800207	0.013179793
632.52	0.11502	0.099800784	0.015219216
632.56	0.11981	0.09980136	0.02000864
632.6	0.11991	0.099801937	0.020108063
632.64	0.11991	0.099802514	0.020107486
632.68	0.11792	0.09980309	0.01811691
632.72	0.11996	0.099803667	0.020156333
632.76	0.11594	0.099804244	0.016135756
632.8	0.11227	0.099804821	0.012465179
632.84	0.11436	0.099805397	0.014554603
632.88	0.11405	0.099805974	0.014244026
632.92	0.11421	0.099806551	0.014403449
632.96	0.114	0.099807127	0.014192873
633	0.11309	0.099807704	0.013282296
633.04	0.11024	0.099808281	0.010431719
633.08	0.11293	0.099808858	0.013121142
633.12	0.1108	0.099809434	0.010990566
633.16	0.114	0.099810011	0.014189989
633.2	0.10906	0.099810588	0.009249412
633.24	0.10927	0.099811164	0.009458836
633.28	0.10937	0.099811741	0.009558259
633.32	0.10759	0.099812318	0.007777682
633.36	0.11115	0.099812894	0.011337106
633.4	0.11003	0.099813471	0.010216529
633.44	0.10657	0.099814048	0.006755952
633.48	0.10667	0.099814625	0.006855375
633.52	0.10637	0.099815201	0.006554799
633.56	0.1027	0.099815778	0.002884222
633.6	0.10922	0.099816355	0.009403645
633.64	0.1027	0.099816931	0.002883069
633.68	0.09308	0.099817508	-0.006737508
633.72	0.10214	0.099818085	0.002321915
633.76	0.10357	0.099818662	0.003751338
633.8	0.10097	0.099819238	0.001150762
633.84	0.10102	0.099819815	0.001200185
633.88	0.0943	0.099820392	-0.005520392
633.92	0.10102	0.099820968	0.001199032
633.96	0.0941	0.099821545	-0.005721545
634	0.09511	0.099822122	-0.004712122
634.04	0.10158	0.099822699	0.001757301
634.08	0.09985	0.099823275	2.67248E-05
634.12	0.10005	0.099823852	0.000226148
634.16	0.0997	0.099824429	-0.000124429
634.2	0.09445	0.099825005	-0.005375005
634.24	0.09425	0.099825582	-0.005575582
634.28	0.09705	0.099826159	-0.002776159
634.32	0.09608	0.099826735	-0.003746735
634.36	0.09903	0.099827312	-0.000797312
634.4	0.09817	0.099827889	-0.001657889
634.44	0.09797	0.099828466	-0.001858466
634.48	0.0972	0.099829042	-0.002629042
634.52	0.09328	0.099829619	-0.006549619
634.56	0.0943	0.099830196	-0.005530196
634.6	0.10555	0.099830772	0.005719228
634.64	0.09898	0.099831349	-0.000851349
634.68	0.10168	0.099831926	0.001848074
634.72	0.10153	0.099832503	0.001697497
634.76	0.09629	0.099833079	-0.003543079
634.8	0.09786	0.099833656	-0.001973656
634.84	0.09629	0.099834233	-0.003544233
634.88	0.10189	0.099834809	0.002055191
634.92	0.10077	0.099835386	0.000934614
634.96	0.09542	0.099835963	-0.004415963
635	0.09537	0.09983654	-0.00446654
635.04	0.10372	0.099837116	0.003882884
635.08	0.09527	0.099837693	-0.004567693
635.12	0.09511	0.09983827	-0.00472827
635.16	0.09878	0.099838846	-0.001058846
635.2	0.09613	0.099839423	-0.003709423
635.24	0.09496	0.09984	-0.00488
635.28	0.1	0.099840576	0.000159424
635.32	0.1	0.099841153	0.000158847
635.36	0.0999	0.09984173	5.82701E-05
635.4	0.10199	0.099842307	0.002147693
635.44	0.09527	0.099842883	-0.004572883
635.48	0.10173	0.09984346	0.00188654
635.52	0.09435	0.099844037	-0.005494037
635.56	0.1027	0.099844613	0.002855387
635.6	0.1028	0.09984519	0.00295481
635.64	0.10163	0.099845767	0.001784233
635.68	0.10168	0.099846344	0.001833656
635.72	0.09914	0.09984692	-0.00070692
635.76	0.09893	0.099847497	-0.000917497
635.8	0.10346	0.099848074	0.003611926
635.84	0.09705	0.09984865	-0.00279865
635.88	0.09695	0.099849227	-0.002899227
635.92	0.09807	0.099849804	-0.001779804
635.96	0.10285	0.09985038	0.00299962
636	0.10178	0.099850957	0.001929043
636.04	0.09608	0.099851534	-0.003771534
636.08	0.09705	0.099852111	-0.002802111
636.12	0.10265	0.099852687	0.002797313
636.16	0.0971	0.099853264	-0.002753264
636.2	0.09705	0.099853841	-0.002803841
636.24	0.09909	0.099854417	-0.000764417
636.28	0.09863	0.099854994	-0.001224994
636.32	0.10077	0.099855571	0.000914429
636.36	0.09517	0.099856148	-0.004686148
636.4	0.0913	0.099856724	-0.008556724
636.44	0.09328	0.099857301	-0.006577301
636.48	0.09328	0.099857878	-0.006577878
636.52	0.10845	0.099858454	0.008591546
636.56	0.09888	0.099859031	-0.000979031
636.6	0.09511	0.099859608	-0.004749608
636.64	0.10239	0.099860185	0.002529815
636.68	0.09196	0.099860761	-0.007900761
636.72	0.09868	0.099861338	-0.001181338
636.76	0.09247	0.099861915	-0.007391915
636.8	0.09221	0.099862491	-0.007652491
636.84	0.10173	0.099863068	0.001866932
636.88	0.09812	0.099863645	-0.001743645
636.92	0.09914	0.099864221	-0.000724221
636.96	0.10021	0.099864798	0.000345202
637	0.09914	0.099865375	-0.000725375
637.04	0.09695	0.099865952	-0.002915952
637.08	0.09705	0.099866528	-0.002816528
637.12	0.09807	0.099867105	-0.001797105
637.16	0.09603	0.099867682	-0.003837682
637.2	0.10285	0.099868258	0.002981742
637.24	0.09817	0.099868835	-0.001698835
637.28	0.10178	0.099869412	0.001910588
637.32	0.10183	0.099869989	0.001960011
637.36	0.10199	0.099870565	0.002119435
637.4	0.10015	0.099871142	0.000278858
637.44	0.09715	0.099871719	-0.002721719
637.48	0.10092	0.099872295	0.001047705
637.52	0.09909	0.099872872	-0.000782872
637.56	0.10382	0.099873449	0.003946551
637.6	0.097	0.099874026	-0.002874026
637.64	0.10077	0.099874602	0.000895398
637.68	0.10092	0.099875179	0.001044821
637.72	0.10071	0.099875756	0.000834244
637.76	0.10382	0.099876332	0.003943668
637.8	0.10367	0.099876909	0.003793091
637.84	0.09705	0.099877486	-0.002827486
637.88	0.1001	0.099878062	0.000221938
637.92	0.09735	0.099878639	-0.002528639
637.96	0.09695	0.099879216	-0.002929216
638	0.09914	0.099879793	-0.000739793
638.04	0.10071	0.099880369	0.000829631
638.08	0.09603	0.099880946	-0.003850946
638.12	0.1027	0.099881523	0.002818477
638.16	0.10255	0.099882099	0.002667901
638.2	0.09802	0.099882676	-0.001862676
638.24	0.0971	0.099883253	-0.002783253
638.28	0.09695	0.09988383	-0.00293383
638.32	0.10082	0.099884406	0.000935594
638.36	0.10754	0.099884983	0.007655017
638.4	0.09995	0.09988556	6.44403E-05
638.44	0.10642	0.099886136	0.006533864
638.48	0.097	0.099886713	-0.002886713
638.52	0.10102	0.09988729	0.00113271
638.56	0.10082	0.099887867	0.000932133
638.6	0.10092	0.099888443	0.001031557
638.64	0.1027	0.09988902	0.00281098
638.68	0.10204	0.099889597	0.002150403
638.72	0.10632	0.099890173	0.006429827
638.76	0.10229	0.09989075	0.00239925
638.8	0.09781	0.099891327	-0.002081327
638.84	0.09812	0.099891903	-0.001771903
638.88	0.09791	0.09989248	-0.00198248
638.92	0.10295	0.099893057	0.003056943
638.96	0.1057	0.099893634	0.005806366
639	0.0998	0.09989421	-9.42103E-05
639.04	0.09618	0.099894787	-0.003714787
639.08	0.10061	0.099895364	0.000714636
639.12	0.10458	0.09989594	0.00468406
639.16	0.10474	0.099896517	0.004843483
639.2	0.10346	0.099897094	0.003562906
639.24	0.1	0.099897671	0.000102329
639.28	0.10189	0.099898247	0.001991753
639.32	0.10275	0.099898824	0.002851176
639.36	0.10357	0.099899401	0.003670599
639.4	0.0973	0.099899977	-0.002599977
639.44	0.0971	0.099900554	-0.002800554
639.48	0.10382	0.099901131	0.003918869
639.52	0.10458	0.099901708	0.004678292
639.56	0.09995	0.099902284	4.77158E-05
639.6	0.10275	0.099902861	0.002847139
639.64	0.1028	0.099903438	0.002896562
639.68	0.10805	0.099904014	0.008145986
639.72	0.10825	0.099904591	0.008345409
639.76	0.09685	0.099905168	-0.003055168
639.8	0.09893	0.099905744	-0.000975744
639.84	0.10545	0.099906321	0.005543679
639.88	0.09567	0.099906898	-0.004236898
639.92	0.10005	0.099907475	0.000142525
639.96	0.0998	0.099908051	-0.000108051