	m	t	
f	3.20236E-05	0.0813871	
			
			
X in nm	Y Signal 	f	y-f
625.04	0.10392	0.101403131	0.002516869
625.08	0.09506	0.101404412	-0.006344412
625.12	0.10173	0.101405693	0.000324307
625.16	0.10183	0.101406974	0.000423026
625.2	0.10525	0.101408255	0.003841745
625.24	0.1	0.101409536	-0.001409536
625.28	0.10453	0.101410817	0.003119183
625.32	0.10443	0.101412098	0.003017902
625.36	0.09802	0.101413378	-0.003393378
625.4	0.1084	0.101414659	0.006985341
625.44	0.0942	0.10141594	-0.00721594
625.48	0.10469	0.101417221	0.003272779
625.52	0.10189	0.101418502	0.000471498
625.56	0.10464	0.101419783	0.003220217
625.6	0.10469	0.101421064	0.003268936
625.64	0.10637	0.101422345	0.004947655
625.68	0.10362	0.101423626	0.002196374
625.72	0.10265	0.101424907	0.001225093
625.76	0.0999	0.101426188	-0.001526188
625.8	0.10275	0.101427469	0.001322531
625.84	0.10458	0.10142875	0.00315125
625.88	0.10479	0.101430031	0.003359969
625.92	0.1001	0.101431312	-0.001331312
625.96	0.10372	0.101432593	0.002287407
626	0.1084	0.101433874	0.006966126
626.04	0.09903	0.101435155	-0.002405155
626.08	0.10183	0.101436435	0.000393565
626.12	0.11492	0.101437716	0.013482284
626.16	0.10632	0.101438997	0.004881003
626.2	0.10632	0.101440278	0.004879722
626.24	0.10642	0.101441559	0.004978441
626.28	0.10346	0.10144284	0.00201716
626.32	0.10377	0.101444121	0.002325879
626.36	0.1025	0.101445402	0.001054598
626.4	0.10285	0.101446683	0.001403317
626.44	0.10535	0.101447964	0.003902036
626.48	0.10525	0.101449245	0.003800755
626.52	0.10183	0.101450526	0.000379474
626.56	0.10372	0.101451807	0.002268193
626.6	0.10392	0.101453088	0.002466912
626.64	0.10071	0.101454369	-0.000744369
626.68	0.10922	0.10145565	0.00776435
626.72	0.1056	0.101456931	0.004143069
626.76	0.10173	0.101458212	0.000271788
626.8	0.10194	0.101459492	0.000480508
626.84	0.10896	0.101460773	0.007499227
626.88	0.10738	0.101462054	0.005917946
626.92	0.1056	0.101463335	0.004136665
626.96	0.10912	0.101464616	0.007655384
627	0.10616	0.101465897	0.004694103
627.04	0.10209	0.101467178	0.000622822
627.08	0.10189	0.101468459	0.000421541
627.12	0.10774	0.10146974	0.00627026
627.16	0.1055	0.101471021	0.004028979
627.2	0.10947	0.101472302	0.007997698
627.24	0.10178	0.101473583	0.000306417
627.28	0.10458	0.101474864	0.003105136
627.32	0.10825	0.101476145	0.006773855
627.36	0.10835	0.101477426	0.006872574
627.4	0.10738	0.101478707	0.005901293
627.44	0.10453	0.101479988	0.003050012
627.48	0.10657	0.101481269	0.005088731
627.52	0.10856	0.101482549	0.007077451
627.56	0.11136	0.10148383	0.00987617
627.6	0.10372	0.101485111	0.002234889
627.64	0.10744	0.101486392	0.005953608
627.68	0.10749	0.101487673	0.006002327
627.72	0.10906	0.101488954	0.007571046
627.76	0.1082	0.101490235	0.006709765
627.8	0.11115	0.101491516	0.009658484
627.84	0.11487	0.101492797	0.013377203
627.88	0.11085	0.101494078	0.009355922
627.92	0.11115	0.101495359	0.009654641
627.96	0.11105	0.10149664	0.00955336
628	0.11777	0.101497921	0.016272079
628.04	0.11024	0.101499202	0.008740798
628.08	0.10942	0.101500483	0.007919517
628.12	0.1113	0.101501764	0.009798236
628.16	0.11691	0.101503045	0.015406955
628.2	0.11273	0.101504326	0.011225674
628.24	0.11319	0.101505606	0.011684394
628.28	0.11008	0.101506887	0.008573113
628.32	0.12256	0.101508168	0.021051832
628.36	0.11222	0.101509449	0.010710551
628.4	0.11293	0.10151073	0.01141927
628.44	0.12098	0.101512011	0.019467989
628.48	0.12139	0.101513292	0.019876708
628.52	0.11207	0.101514573	0.010555427
628.56	0.11197	0.101515854	0.010454146
628.6	0.11696	0.101517135	0.015442865
628.64	0.11685	0.101518416	0.015331584
628.68	0.11889	0.101519697	0.017370303
628.72	0.1195	0.101520978	0.017979022
628.76	0.12154	0.101522259	0.020017741
628.8	0.10932	0.10152354	0.00779646
628.84	0.10937	0.101524821	0.007845179
628.88	0.11864	0.101526102	0.017113898
628.92	0.11757	0.101527383	0.016042617
628.96	0.11558	0.101528663	0.014051337
629	0.11039	0.101529944	0.008860056
629.04	0.11497	0.101531225	0.013438775
629.08	0.11309	0.101532506	0.011557494
629.12	0.11309	0.101533787	0.011556213
629.16	0.11324	0.101535068	0.011704932
629.2	0.11125	0.101536349	0.009713651
629.24	0.11675	0.10153763	0.01521237
629.28	0.10932	0.101538911	0.007781089
629.32	0.10927	0.101540192	0.007729808
629.36	0.1109	0.101541473	0.009358527
629.4	0.10744	0.101542754	0.005897246
629.44	0.10759	0.101544035	0.006045965
629.48	0.10632	0.101545316	0.004774684
629.52	0.10906	0.101546597	0.007513403
629.56	0.11095	0.101547878	0.009402122
629.6	0.10576	0.101549159	0.004210841
629.64	0.10657	0.10155044	0.00501956
629.68	0.10372	0.10155172	0.00216828
629.72	0.10377	0.101553001	0.002216999
629.76	0.10245	0.101554282	0.000895718
629.8	0.1055	0.101555563	0.003944437
629.84	0.1028	0.101556844	0.001243156
629.88	0.0999	0.101558125	-0.001658125
629.92	0.10647	0.101559406	0.004910594
629.96	0.1	0.101560687	-0.001560687
630	0.09898	0.101561968	-0.002581968
630.04	0.09909	0.101563249	-0.002473249
630.08	0.09802	0.10156453	-0.00354453
630.12	0.10178	0.101565811	0.000214189
630.16	0.09995	0.101567092	-0.001617092
630.2	0.10061	0.101568373	-0.000958373
630.24	0.09791	0.101569654	-0.003659654
630.28	0.10616	0.101570935	0.004589065
630.32	0.10647	0.101572216	0.004897784
630.36	0.10377	0.101573496	0.002196504
630.4	0.09883	0.101574777	-0.002744777
630.44	0.10082	0.101576058	-0.000756058
630.48	0.09985	0.101577339	-0.001727339
630.52	0.10474	0.10157862	0.00316138
630.56	0.10097	0.101579901	-0.000609901
630.6	0.1	0.101581182	-0.001581182
630.64	0.09975	0.101582463	-0.001832463
630.68	0.10632	0.101583744	0.004736256
630.72	0.10005	0.101585025	-0.001535025
630.76	0.09506	0.101586306	-0.006526306
630.8	0.1026	0.101587587	0.001012413
630.84	0.10178	0.101588868	0.000191132
630.88	0.11018	0.101590149	0.008589851
630.92	0.11003	0.10159143	0.00843857
630.96	0.09939	0.101592711	-0.002202711
631	0.10194	0.101593992	0.000346008
631.04	0.1	0.101595273	-0.001595273
631.08	0.10555	0.101596553	0.003953447
631.12	0.09812	0.101597834	-0.003477834
631.16	0.10647	0.101599115	0.004870885
631.2	0.10626	0.101600396	0.004659604
631.24	0.09338	0.101601677	-0.008221677
631.28	0.10759	0.101602958	0.005987042
631.32	0.10662	0.101604239	0.005015761
631.36	0.1025	0.10160552	0.00089448
631.4	0.10728	0.101606801	0.005673199
631.44	0.09888	0.101608082	-0.002728082
631.48	0.10545	0.101609363	0.003840637
631.52	0.10555	0.101610644	0.003939356
631.56	0.10759	0.101611925	0.005978075
631.6	0.11309	0.101613206	0.011476794
631.64	0.10652	0.101614487	0.004905513
631.68	0.10733	0.101615768	0.005714232
631.72	0.10952	0.101617049	0.007902951
631.76	0.11029	0.10161833	0.00867167
631.8	0.11029	0.10161961	0.00867039
631.84	0.1085	0.101620891	0.006879109
631.88	0.11487	0.101622172	0.013247828
631.92	0.11691	0.101623453	0.015286547
631.96	0.11288	0.101624734	0.011255266
632	0.11309	0.101626015	0.011463985
632.04	0.12154	0.101627296	0.019912704
632.08	0.12133	0.101628577	0.019701423
632.12	0.12072	0.101629858	0.019090142
632.16	0.1164	0.101631139	0.014768861
632.2	0.11879	0.10163242	0.01715758
632.24	0.12322	0.101633701	0.021586299
632.28	0.11614	0.101634982	0.014505018
632.32	0.12057	0.101636263	0.018933737
632.36	0.11288	0.101637544	0.011242456
632.4	0.11304	0.101638825	0.011401175
632.44	0.12286	0.101640106	0.021219894
632.48	0.12072	0.101641387	0.019078613
632.52	0.12083	0.101642667	0.019187333
632.56	0.13004	0.101643948	0.028396052
632.6	0.11981	0.101645229	0.018164771
632.64	0.12149	0.10164651	0.01984349
632.68	0.12169	0.101647791	0.020042209
632.72	0.12352	0.101649072	0.021870928
632.76	0.11894	0.101650353	0.017289647
632.8	0.12062	0.101651634	0.018968366
632.84	0.1167	0.101652915	0.015047085
632.88	0.11772	0.101654196	0.016065804
632.92	0.12149	0.101655477	0.019834523
632.96	0.12057	0.101656758	0.018913242
633	0.12072	0.101658039	0.019061961
633.04	0.11767	0.10165932	0.01601068
633.08	0.11095	0.101660601	0.009289399
633.12	0.1113	0.101661882	0.009638118
633.16	0.11339	0.101663163	0.011726837
633.2	0.11416	0.101664444	0.012495556
633.24	0.11436	0.101665724	0.012694276
633.28	0.11395	0.101667005	0.012282995
633.32	0.10657	0.101668286	0.004901714
633.36	0.11217	0.101669567	0.010500433
633.4	0.1054	0.101670848	0.003729152
633.44	0.10443	0.101672129	0.002757871
633.48	0.10464	0.10167341	0.00296659
633.52	0.10443	0.101674691	0.002755309
633.56	0.10484	0.101675972	0.003164028
633.6	0.10443	0.101677253	0.002752747
633.64	0.1025	0.101678534	0.000821466
633.68	0.10637	0.101679815	0.004690185
633.72	0.1055	0.101681096	0.003818904
633.76	0.09898	0.101682377	-0.002702377
633.8	0.09807	0.101683658	-0.003613658
633.84	0.10275	0.101684939	0.001065061
633.88	0.1026	0.10168622	0.00091378
633.92	0.1025	0.101687501	0.000812499
633.96	0.09985	0.101688781	-0.001838781
634	0.10428	0.101690062	0.002589938
634.04	0.10382	0.101691343	0.002128657
634.08	0.09903	0.101692624	-0.002662624
634.12	0.10265	0.101693905	0.000956095
634.16	0.1025	0.101695186	0.000804814
634.2	0.10183	0.101696467	0.000133533
634.24	0.09705	0.101697748	-0.004647748
634.28	0.09909	0.101699029	-0.002609029
634.32	0.09898	0.10170031	-0.00272031
634.36	0.10484	0.101701591	0.003138409
634.4	0.10092	0.101702872	-0.000782872
634.44	0.10087	0.101704153	-0.000834153
634.48	0.10005	0.101705434	-0.001655434
634.52	0.09496	0.101706715	-0.006746715
634.56	0.10474	0.101707996	0.003032004
634.6	0.10255	0.101709277	0.000840723
634.64	0.09898	0.101710558	-0.002730558
634.68	0.10082	0.101711838	-0.000891838
634.72	0.09995	0.101713119	-0.001763119
634.76	0.0998	0.1017144	-0.0019144
634.8	0.10927	0.101715681	0.007554319
634.84	0.10382	0.101716962	0.002103038
634.88	0.10458	0.101718243	0.002861757
634.92	0.10097	0.101719524	-0.000749524
634.96	0.10555	0.101720805	0.003829195
635	0.0999	0.101722086	-0.001822086
635.04	0.09995	0.101723367	-0.001773367
635.08	0.09685	0.101724648	-0.004874648
635.12	0.10545	0.101725929	0.003724071
635.16	0.10005	0.10172721	-0.00167721
635.2	0.1029	0.101728491	0.001171509
635.24	0.10194	0.101729772	0.000210228
635.28	0.09888	0.101731053	-0.002851053
635.32	0.10178	0.101732334	4.76664E-05
635.36	0.10178	0.101733614	4.63855E-05
635.4	0.09898	0.101734895	-0.002754895
635.44	0.10275	0.101736176	0.001013824
635.48	0.09405	0.101737457	-0.007687457
635.52	0.10652	0.101738738	0.004781262
635.56	0.09674	0.101740019	-0.005000019
635.6	0.0972	0.1017413	-0.0045413
635.64	0.0971	0.101742581	-0.004642581
635.68	0.10301	0.101743862	0.001266138
635.72	0.09985	0.101745143	-0.001895143
635.76	0.10382	0.101746424	0.002073576
635.8	0.10077	0.101747705	-0.000977705
635.84	0.1027	0.101748986	0.000951014
635.88	0.09629	0.101750267	-0.005460267
635.92	0.09583	0.101751548	-0.005921548
635.96	0.1026	0.101752829	0.000847171
636	0.09995	0.10175411	-0.00180411
636.04	0.1027	0.101755391	0.000944609
636.08	0.10443	0.101756671	0.002673329
636.12	0.1026	0.101757952	0.000842048
636.16	0.1026	0.101759233	0.000840767
636.2	0.10209	0.101760514	0.000329486
636.24	0.10224	0.101761795	0.000478205
636.28	0.10453	0.101763076	0.002766924
636.32	0.1	0.101764357	-0.001764357
636.36	0.09791	0.101765638	-0.003855638
636.4	0.09705	0.101766919	-0.004716919
636.44	0.10372	0.1017682	0.0019518
636.48	0.10153	0.101769481	-0.000239481
636.52	0.10183	0.101770762	5.92381E-05
636.56	0.1083	0.101772043	0.006527957
636.6	0.10362	0.101773324	0.001846676
636.64	0.09812	0.101774605	-0.003654605
636.68	0.10545	0.101775886	0.003674114
636.72	0.09634	0.101777167	-0.005437167
636.76	0.10133	0.101778448	-0.000448448
636.8	0.10021	0.101779728	-0.001569728
636.84	0.09995	0.101781009	-0.001831009
636.88	0.09705	0.10178229	-0.00473229
636.92	0.10545	0.101783571	0.003666429
636.96	0.09985	0.101784852	-0.001934852
637	0.10082	0.101786133	-0.000966133
637.04	0.09863	0.101787414	-0.003157414
637.08	0.10362	0.101788695	0.001831305
637.12	0.10382	0.101789976	0.002030024
637.16	0.09995	0.101791257	-0.001841257
637.2	0.097	0.101792538	-0.004792538
637.24	0.10071	0.101793819	-0.001083819
637.28	0.10005	0.1017951	-0.0017451
637.32	0.09685	0.101796381	-0.004946381
637.36	0.10352	0.101797662	0.001722338
637.4	0.10357	0.101798943	0.001771057
637.44	0.10199	0.101800224	0.000189776
637.48	0.10071	0.101801505	-0.001091505
637.52	0.10545	0.101802785	0.003647215
637.56	0.10158	0.101804066	-0.000224066
637.6	0.09802	0.101805347	-0.003785347
637.64	0.09868	0.101806628	-0.003126628
637.68	0.09781	0.101807909	-0.003997909
637.72	0.09781	0.10180919	-0.00399919
637.76	0.10005	0.101810471	-0.001760471
637.8	0.09435	0.101811752	-0.007461752
637.84	0.10357	0.101813033	0.001756967
637.88	0.10397	0.101814314	0.002155686
637.92	0.0999	0.101815595	-0.001915595
637.96	0.10479	0.101816876	0.002973124
638	0.10464	0.101818157	0.002821843
638.04	0.1054	0.101819438	0.003580562
638.08	0.1028	0.101820719	0.000979281
638.12	0.10932	0.101822	0.007498
638.16	0.0999	0.101823281	-0.001923281
638.2	0.09598	0.101824562	-0.005844562
638.24	0.0998	0.101825842	-0.002025842
638.28	0.1	0.101827123	-0.001827123
638.32	0.10458	0.101828404	0.002751596
638.36	0.10087	0.101829685	-0.000959685
638.4	0.09898	0.101830966	-0.002850966
638.44	0.10474	0.101832247	0.002907753
638.48	0.1026	0.101833528	0.000766472
638.52	0.10372	0.101834809	0.001885191
638.56	0.10367	0.10183609	0.00183391
638.6	0.10362	0.101837371	0.001782629
638.64	0.10392	0.101838652	0.002081348
638.68	0.10173	0.101839933	-0.000109933
638.72	0.0997	0.101841214	-0.002141214
638.76	0.10652	0.101842495	0.004677505
638.8	0.09985	0.101843776	-0.001993776
638.84	0.10367	0.101845057	0.001824943
638.88	0.10362	0.101846338	0.001773662
638.92	0.1027	0.101847619	0.000852381
638.96	0.10173	0.101848899	-0.000118899
639	0.10372	0.10185018	0.00186982
639.04	0.09812	0.101851461	-0.003731461
639.08	0.09873	0.101852742	-0.003122742
639.12	0.10199	0.101854023	0.000135977
639.16	0.10474	0.101855304	0.002884696
639.2	0.10438	0.101856585	0.002523415
639.24	0.10387	0.101857866	0.002012134
639.28	0.10453	0.101859147	0.002670853
639.32	0.10448	0.101860428	0.002619572
639.36	0.10448	0.101861709	0.002618291
639.4	0.10667	0.10186299	0.00480701
639.44	0.1028	0.101864271	0.000935729
639.48	0.10301	0.101865552	0.001144448
639.52	0.10173	0.101866833	-0.000136833
639.56	0.10275	0.101868114	0.000881886
639.6	0.10362	0.101869395	0.001750605
639.64	0.09985	0.101870676	-0.002020676
639.68	0.10082	0.101871956	-0.001051956
639.72	0.10484	0.101873237	0.002966763
639.76	0.10453	0.101874518	0.002655482
639.8	0.09995	0.101875799	-0.001925799
639.84	0.10285	0.10187708	0.00097292
639.88	0.10565	0.101878361	0.003771639
639.92	0.09995	0.101879642	-0.001929642
639.96	0.10484	0.101880923	0.002959077
640	0.10581	0.101882204	0.003927796
640.04	0.10484	0.101883485	0.002956515
640.08	0.10458	0.101884766	0.002695234
640.12	0.10357	0.101886047	0.001683953
640.16	0.09883	0.101887328	-0.003057328
640.2	0.10565	0.101888609	0.003761391
640.24	0.10825	0.10188989	0.00636011
640.28	0.11105	0.101891171	0.009158829
640.32	0.10448	0.101892452	0.002587548
640.36	0.10479	0.101893732	0.002896268
640.4	0.09812	0.101895013	-0.003775013
640.44	0.10723	0.101896294	0.005333706
640.48	0.097	0.101897575	-0.004897575
640.52	0.10265	0.101898856	0.000751144
640.56	0.10295	0.101900137	0.001049863
640.6	0.10357	0.101901418	0.001668582
640.64	0.10387	0.101902699	0.001967301
640.68	0.10341	0.10190398	0.00150602
640.72	0.09914	0.101905261	-0.002765261
640.76	0.10632	0.101906542	0.004413458
640.8	0.09817	0.101907823	-0.003737823
640.84	0.10856	0.101909104	0.006650896
640.88	0.10474	0.101910385	0.002829615
640.92	0.10835	0.101911666	0.006438334
640.96	0.10835	0.101912947	0.006437053
641	0.10367	0.101914228	0.001755772
641.04	0.10662	0.101915509	0.004704491
641.08	0.1055	0.101916789	0.003583211
641.12	0.1029	0.10191807	0.00098193
641.16	0.10443	0.101919351	0.002510649
641.2	0.10835	0.101920632	0.006429368
641.24	0.10845	0.101921913	0.006528087
641.28	0.10637	0.101923194	0.004446806
641.32	0.10637	0.101924475	0.004445525
641.36	0.10576	0.101925756	0.003834244
641.4	0.1084	0.101927037	0.006472963
641.44	0.10535	0.101928318	0.003421682
641.48	0.10555	0.101929599	0.003620401
641.52	0.10382	0.10193088	0.00188912
641.56	0.10362	0.101932161	0.001687839
641.6	0.10102	0.101933442	-0.000913442
641.64	0.10657	0.101934723	0.004635277
641.68	0.10744	0.101936004	0.005503996
641.72	0.1083	0.101937285	0.006362715
641.76	0.11512	0.101938566	0.013181434
641.8	0.10275	0.101939846	0.000810154
641.84	0.1028	0.101941127	0.000858873
641.88	0.11013	0.101942408	0.008187592
641.92	0.11227	0.101943689	0.010326311
641.96	0.11614	0.10194497	0.01419503
642	0.10637	0.101946251	0.004423749
642.04	0.11298	0.101947532	0.011032468
642.08	0.12154	0.101948813	0.019591187
642.12	0.12174	0.101950094	0.019789906
642.16	0.11497	0.101951375	0.013018625
642.2	0.11981	0.101952656	0.017857344
642.24	0.11385	0.101953937	0.011896063
642.28	0.12627	0.101955218	0.024314782
642.32	0.1331	0.101956499	0.031143501
642.36	0.13294	0.10195778	0.03098222
642.4	0.13473	0.101959061	0.032770939
642.44	0.13483	0.101960342	0.032869658
642.48	0.13951	0.101961623	0.037548377
642.52	0.14328	0.101962903	0.041317097
642.56	0.14812	0.101964184	0.046155816
642.6	0.14618	0.101965465	0.044214535
642.64	0.16217	0.101966746	0.060203254
642.68	0.16609	0.101968027	0.064121973
642.72	0.16583	0.101969308	0.063860692
642.76	0.17062	0.101970589	0.068649411
642.8	0.18218	0.10197187	0.08020813
642.84	0.18549	0.101973151	0.083516849
642.88	0.19883	0.101974432	0.096855568
642.92	0.19918	0.101975713	0.097204287
642.96	0.18961	0.101976994	0.087633006
643	0.20845	0.101978275	0.106471725
643.04	0.20824	0.101979556	0.106260444
643.08	0.21491	0.101980837	0.112929163
643.12	0.22031	0.101982118	0.118327882
643.16	0.21761	0.101983399	0.115626601
643.2	0.225	0.10198468	0.12301532
643.24	0.21853	0.10198596	0.11654404
643.28	0.22337	0.101987241	0.121382759
643.32	0.22301	0.101988522	0.121021478
643.36	0.22046	0.101989803	0.118470197
643.4	0.22433	0.101991084	0.122338916
643.44	0.22067	0.101992365	0.118677635
643.48	0.22622	0.101993646	0.124226354
643.52	0.2279	0.101994927	0.125905073
643.56	0.21033	0.101996208	0.108333792
643.6	0.21023	0.101997489	0.108232511
643.64	0.2196	0.10199877	0.11760123
643.68	0.20916	0.102000051	0.107159949
643.72	0.20718	0.102001332	0.105178668
643.76	0.19124	0.102002613	0.089237387
643.8	0.19241	0.102003894	0.090406106
643.84	0.17332	0.102005175	0.071314825
643.88	0.17118	0.102006456	0.069173544
643.92	0.17154	0.102007737	0.069532263
643.96	0.15733	0.102009017	0.055320983
644	0.16314	0.102010298	0.061129702
644.04	0.14705	0.102011579	0.045038421
644.08	0.15092	0.10201286	0.04890714
644.12	0.13834	0.102014141	0.036325859
644.16	0.13773	0.102015422	0.035714578
644.2	0.13742	0.102016703	0.035403297
644.24	0.13182	0.102017984	0.029802016
644.28	0.12912	0.102019265	0.027100735
644.32	0.12337	0.102020546	0.021349454
644.36	0.12154	0.102021827	0.019518173
644.4	0.11492	0.102023108	0.012896892
644.44	0.11976	0.102024389	0.017735611
644.48	0.11991	0.10202567	0.01788433
644.52	0.10474	0.102026951	0.002713049
644.56	0.11426	0.102028232	0.012231768
644.6	0.11314	0.102029513	0.011110487
644.64	0.10825	0.102030794	0.006219206
644.68	0.11125	0.102032074	0.009217926
644.72	0.10255	0.102033355	0.000516645
644.76	0.10922	0.102034636	0.007185364
644.8	0.10912	0.102035917	0.007084083
644.84	0.10637	0.102037198	0.004332802
644.88	0.1082	0.102038479	0.006161521
644.92	0.10922	0.10203976	0.00718024
644.96	0.10845	0.102041041	0.006408959
645	0.10835	0.102042322	0.006307678
645.04	0.1056	0.102043603	0.003556397
645.08	0.1056	0.102044884	0.003555116
645.12	0.11024	0.102046165	0.008193835
645.16	0.10367	0.102047446	0.001622554
645.2	0.11197	0.102048727	0.009921273
645.24	0.10046	0.102050008	-0.001590008
645.28	0.11207	0.102051289	0.010018711
645.32	0.10749	0.10205257	0.00543743
645.36	0.10194	0.10205385	-0.00011385
645.4	0.10163	0.102055131	-0.000425131
645.44	0.1082	0.102056412	0.006143588
645.48	0.11405	0.102057693	0.011992307
645.52	0.1084	0.102058974	0.006341026
645.56	0.10555	0.102060255	0.003489745
645.6	0.10937	0.102061536	0.007308464
645.64	0.11309	0.102062817	0.011027183
645.68	0.11314	0.102064098	0.011075902
645.72	0.10565	0.102065379	0.003584621
645.76	0.10453	0.10206666	0.00246334
645.8	0.10906	0.102067941	0.006992059
645.84	0.10642	0.102069222	0.004350778
645.88	0.1	0.102070503	-0.002070503
645.92	0.10362	0.102071784	0.001548216
645.96	0.10336	0.102073065	0.001286935
646	0.10815	0.102074346	0.006075654
646.04	0.10942	0.102075627	0.007344373
646.08	0.1027	0.102076907	0.000623093
646.12	0.10922	0.102078188	0.007141812
646.16	0.10733	0.102079469	0.005250531
646.2	0.10922	0.10208075	0.00713925
646.24	0.10464	0.102082031	0.002557969
646.28	0.10443	0.102083312	0.002346688
646.32	0.10835	0.102084593	0.006265407
646.36	0.10448	0.102085874	0.002394126
646.4	0.1113	0.102087155	0.009212845
646.44	0.10458	0.102088436	0.002491564
646.48	0.10754	0.102089717	0.005450283
646.52	0.10382	0.102090998	0.001729002
646.56	0.10372	0.102092279	0.001627721
646.6	0.10937	0.10209356	0.00727644
646.64	0.11029	0.102094841	0.008195159
646.68	0.10448	0.102096122	0.002383878
646.72	0.10927	0.102097403	0.007172597
646.76	0.11426	0.102098684	0.012161316
646.8	0.11614	0.102099964	0.014040036
646.84	0.11589	0.102101245	0.013788755
646.88	0.11971	0.102102526	0.017607474
646.92	0.12067	0.102103807	0.018566193
646.96	0.11293	0.102105088	0.010824912
647	0.12047	0.102106369	0.018363631
647.04	0.11976	0.10210765	0.01765235
647.08	0.12347	0.102108931	0.021361069
647.12	0.12643	0.102110212	0.024319788
647.16	0.12622	0.102111493	0.024108507
647.2	0.13238	0.102112774	0.030267226
647.24	0.12923	0.102114055	0.027115945
647.28	0.13366	0.102115336	0.031544664
647.32	0.13936	0.102116617	0.037243383
647.36	0.13569	0.102117898	0.033572102
647.4	0.14226	0.102119179	0.040140821
647.44	0.14216	0.10212046	0.04003954
647.48	0.14414	0.102121741	0.042018259
647.52	0.13951	0.102123021	0.037386979
647.56	0.14048	0.102124302	0.038355698
647.6	0.14048	0.102125583	0.038354417
647.64	0.14216	0.102126864	0.040033136
647.68	0.14908	0.102128145	0.046951855
647.72	0.15097	0.102129426	0.048840574
647.76	0.15112	0.102130707	0.048989293
647.8	0.14109	0.102131988	0.038958012
647.84	0.14496	0.102133269	0.042826731
647.88	0.14333	0.10213455	0.04119545
647.92	0.13366	0.102135831	0.031524169
647.96	0.14613	0.102137112	0.043992888
648	0.14043	0.102138393	0.038291607
648.04	0.14053	0.102139674	0.038390326
648.08	0.13763	0.102140955	0.035489045
648.12	0.13585	0.102142236	0.033707764
648.16	0.13753	0.102143517	0.035386483
648.2	0.12933	0.102144798	0.027185202
648.24	0.13467	0.102146078	0.032523922
648.28	0.12846	0.102147359	0.026312641
648.32	0.12826	0.10214864	0.02611136
648.36	0.12627	0.102149921	0.024120079
648.4	0.12342	0.102151202	0.021268798
648.44	0.12149	0.102152483	0.019337517
648.48	0.11411	0.102153764	0.011956236
648.52	0.11701	0.102155045	0.014854955
648.56	0.11421	0.102156326	0.012053674
648.6	0.1083	0.102157607	0.006142393
648.64	0.1085	0.102158888	0.006341112
648.68	0.10749	0.102160169	0.005329831
648.72	0.10484	0.10216145	0.00267855
648.76	0.10947	0.102162731	0.007307269
648.8	0.10901	0.102164012	0.006845988
648.84	0.1055	0.102165293	0.003334707
648.88	0.10657	0.102166574	0.004403426
648.92	0.10642	0.102167855	0.004252145
648.96	0.10657	0.102169135	0.004400865
649	0.1083	0.102170416	0.006129584
649.04	0.10301	0.102171697	0.000838303
649.08	0.10927	0.102172978	0.007097022
649.12	0.11044	0.102174259	0.008265741
649.16	0.10382	0.10217554	0.00164446
649.2	0.10759	0.102176821	0.005413179
649.24	0.10744	0.102178102	0.005261898
649.28	0.10744	0.102179383	0.005260617
649.32	0.1054	0.102180664	0.003219336
649.36	0.10148	0.102181945	-0.000701945
649.4	0.10458	0.102183226	0.002396774
649.44	0.1056	0.102184507	0.003415493
649.48	0.10621	0.102185788	0.004024212
649.52	0.10662	0.102187069	0.004432931
649.56	0.10912	0.10218835	0.00693165
649.6	0.10469	0.102189631	0.002500369
649.64	0.10637	0.102190912	0.004179088
649.68	0.10652	0.102192192	0.004327808
649.72	0.10845	0.102193473	0.006256527
649.76	0.10733	0.102194754	0.005135246
649.8	0.10744	0.102196035	0.005243965
649.84	0.10637	0.102197316	0.004172684
649.88	0.10367	0.102198597	0.001471403
649.92	0.10092	0.102199878	-0.001279878
649.96	0.10565	0.102201159	0.003448841
650	0.10372	0.10220244	0.00151756
650.04	0.09786	0.102203721	-0.004343721
650.08	0.0969	0.102205002	-0.005305002
650.12	0.09715	0.102206283	-0.005056283
650.16	0.09725	0.102207564	-0.004957564
650.2	0.10474	0.102208845	0.002531155
650.24	0.10173	0.102210126	-0.000480126
650.28	0.10392	0.102211407	0.001708593
650.32	0.09802	0.102212688	-0.004192688
650.36	0.1027	0.102213968	0.000486032
650.4	0.10255	0.102215249	0.000334751
650.44	0.09705	0.10221653	-0.00516653
650.48	0.10891	0.102217811	0.006692189
650.52	0.10377	0.102219092	0.001550908
650.56	0.10448	0.102220373	0.002259627
650.6	0.10367	0.102221654	0.001448346
650.64	0.10077	0.102222935	-0.001452935
650.68	0.10092	0.102224216	-0.001304216
650.72	0.10295	0.102225497	0.000724503
650.76	0.1027	0.102226778	0.000473222
650.8	0.10285	0.102228059	0.000621941
650.84	0.10087	0.10222934	-0.00135934
650.88	0.10458	0.102230621	0.002349379
650.92	0.10744	0.102231902	0.005208098
650.96	0.09893	0.102233183	-0.003303183
651	0.09893	0.102234464	-0.003304464
651.04	0.10458	0.102235745	0.002344255
651.08	0.09893	0.102237025	-0.003307025
651.12	0.10102	0.102238306	-0.001218306
651.16	0.10367	0.102239587	0.001430413
651.2	0.1052	0.102240868	0.002959132
651.24	0.10565	0.102242149	0.003407851
651.28	0.1057	0.10224343	0.00345657
651.32	0.10071	0.102244711	-0.001534711
651.36	0.09903	0.102245992	-0.003215992
651.4	0.10438	0.102247273	0.002132727
651.44	0.09903	0.102248554	-0.003218554
651.48	0.09786	0.102249835	-0.004389835
651.52	0.10163	0.102251116	-0.000621116
651.56	0.09893	0.102252397	-0.003322397
651.6	0.09878	0.102253678	-0.003473678
651.64	0.09618	0.102254959	-0.006074959
651.68	0.10265	0.10225624	0.00039376
651.72	0.09995	0.102257521	-0.002307521
651.76	0.09766	0.102258802	-0.004598802
651.8	0.10469	0.102260082	0.002429918
651.84	0.09995	0.102261363	-0.002311363
651.88	0.1001	0.102262644	-0.002162644
651.92	0.10163	0.102263925	-0.000633925
651.96	0.10927	0.102265206	0.007004794
652	0.10168	0.102266487	-0.000586487
652.04	0.10632	0.102267768	0.004052232
652.08	0.09791	0.102269049	-0.004359049
652.12	0.1	0.10227033	-0.00227033
652.16	0.09985	0.102271611	-0.002421611
652.2	0.10255	0.102272892	0.000277108
652.24	0.10448	0.102274173	0.002205827
652.28	0.10728	0.102275454	0.005004546
652.32	0.10077	0.102276735	-0.001506735
652.36	0.10082	0.102278016	-0.001458016
652.4	0.09786	0.102279297	-0.004419297
652.44	0.1053	0.102280578	0.003019422
652.48	0.10576	0.102281859	0.003478141
652.52	0.10158	0.102283139	-0.000703139
652.56	0.09878	0.10228442	-0.00350442
652.6	0.1057	0.102285701	0.003414299
652.64	0.1028	0.102286982	0.000513018
652.68	0.10183	0.102288263	-0.000458263
652.72	0.1028	0.102289544	0.000510456
652.76	0.10295	0.102290825	0.000659175
652.8	0.10275	0.102292106	0.000457894
652.84	0.09797	0.102293387	-0.004323387
652.88	0.10754	0.102294668	0.005245332
652.92	0.10932	0.102295949	0.007024051
652.96	0.10718	0.10229723	0.00488277
653	0.10453	0.102298511	0.002231489
653.04	0.10474	0.102299792	0.002440208
653.08	0.1028	0.102301073	0.000498927
653.12	0.0999	0.102302354	-0.002402354
653.16	0.10204	0.102303635	-0.000263635
653.2	0.1084	0.102304916	0.006095084
653.24	0.10362	0.102306196	0.001313804
653.28	0.10464	0.102307477	0.002332523
653.32	0.10448	0.102308758	0.002171242
653.36	0.10458	0.102310039	0.002269961
653.4	0.10214	0.10231132	-0.00017132
653.44	0.10199	0.102312601	-0.000322601
653.48	0.09786	0.102313882	-0.004453882
653.52	0.10189	0.102315163	-0.000425163
653.56	0.10189	0.102316444	-0.000426444
653.6	0.09781	0.102317725	-0.004507725
653.64	0.09797	0.102319006	-0.004349006
653.68	0.10713	0.102320287	0.004809713
653.72	0.10769	0.102321568	0.005368432
653.76	0.10097	0.102322849	-0.001352849
653.8	0.09511	0.10232413	-0.00721413
653.84	0.10733	0.102325411	0.005004589
653.88	0.10092	0.102326692	-0.001406692
653.92	0.09914	0.102327973	-0.003187973
653.96	0.09883	0.102329253	-0.003499253
654	0.1026	0.102330534	0.000269466
654.04	0.10626	0.102331815	0.003928185
654.08	0.10662	0.102333096	0.004286904
654.12	0.09735	0.102334377	-0.004984377
654.16	0.0998	0.102335658	-0.002535658
654.2	0.10102	0.102336939	-0.001316939
654.24	0.10087	0.10233822	-0.00146822
654.28	0.10367	0.102339501	0.001330499
654.32	0.09985	0.102340782	-0.002490782
654.36	0.10759	0.102342063	0.005247937
654.4	0.09995	0.102343344	-0.002393344
654.44	0.10474	0.102344625	0.002395375
654.48	0.1027	0.102345906	0.000354094
654.52	0.10275	0.102347187	0.000402813
654.56	0.10183	0.102348468	-0.000518468
654.6	0.09415	0.102349749	-0.008199749
654.64	0.09679	0.10235103	-0.00556103
654.68	0.10005	0.10235231	-0.00230231
654.72	0.09909	0.102353591	-0.003263591
654.76	0.10026	0.102354872	-0.002094872
654.8	0.09914	0.102356153	-0.003216153
654.84	0.09893	0.102357434	-0.003427434
654.88	0.10194	0.102358715	-0.000418715
654.92	0.10087	0.102359996	-0.001489996
654.96	0.10667	0.102361277	0.004308723
655	0.10372	0.102362558	0.001357442
655.04	0.10255	0.102363839	0.000186161
655.08	0.09791	0.10236512	-0.00445512
655.12	0.09802	0.102366401	-0.004346401
655.16	0.10662	0.102367682	0.004252318
655.2	0.10382	0.102368963	0.001451037
655.24	0.10443	0.102370244	0.002059756
655.28	0.10835	0.102371525	0.005978475
655.32	0.09608	0.102372806	-0.006292806
655.36	0.10576	0.102374086	0.003385914
655.4	0.09898	0.102375367	-0.003395367
655.44	0.09888	0.102376648	-0.003496648
655.48	0.10377	0.102377929	0.001392071
655.52	0.10295	0.10237921	0.00057079
655.56	0.10362	0.102380491	0.001239509
655.6	0.0999	0.102381772	-0.002481772
655.64	0.10632	0.102383053	0.003936947
655.68	0.10183	0.102384334	-0.000554334
655.72	0.10168	0.102385615	-0.000705615
655.76	0.0999	0.102386896	-0.002486896
655.8	0.10352	0.102388177	0.001131823
655.84	0.09873	0.102389458	-0.003659458
655.88	0.0969	0.102390739	-0.005490739
655.92	0.10194	0.10239202	-0.00045202
655.96	0.09817	0.102393301	-0.004223301
656	0.09807	0.102394582	-0.004324582
656.04	0.09506	0.102395863	-0.007335863
656.08	0.10183	0.102397143	-0.000567143
656.12	0.09995	0.102398424	-0.002448424
656.16	0.1055	0.102399705	0.003100295
656.2	0.10362	0.102400986	0.001219014
656.24	0.10239	0.102402267	-1.22673E-05
656.28	0.10377	0.102403548	0.001366452
656.32	0.10382	0.102404829	0.001415171
656.36	0.10168	0.10240611	-0.00072611
656.4	0.10178	0.102407391	-0.000627391
656.44	0.0998	0.102408672	-0.002608672
656.48	0.09832	0.102409953	-0.004089953
656.52	0.10464	0.102411234	0.002228766
656.56	0.0999	0.102412515	-0.002512515
656.6	0.09985	0.102413796	-0.002563796
656.64	0.10433	0.102415077	0.001914923
656.68	0.10448	0.102416358	0.002063642
656.72	0.10621	0.102417639	0.003792361
656.76	0.10469	0.10241892	0.00227108
656.8	0.10107	0.1024202	-0.0013502
656.84	0.10301	0.102421481	0.000588519
656.88	0.10285	0.102422762	0.000427238
656.92	0.10168	0.102424043	-0.000744043
656.96	0.10183	0.102425324	-0.000595324
657	0.10015	0.102426605	-0.002276605
657.04	0.10026	0.102427886	-0.002167886
657.08	0.10015	0.102429167	-0.002279167
657.12	0.10173	0.102430448	-0.000700448
657.16	0.10367	0.102431729	0.001238271
657.2	0.10382	0.10243301	0.00138699
657.24	0.1029	0.102434291	0.000465709
657.28	0.10718	0.102435572	0.004744428
657.32	0.10387	0.102436853	0.001433147
657.36	0.1054	0.102438134	0.002961866
657.4	0.10066	0.102439415	-0.001779415
657.44	0.10377	0.102440696	0.001329304
657.48	0.10362	0.102441977	0.001178023
657.52	0.10092	0.102443257	-0.001523257
657.56	0.1056	0.102444538	0.003155462
657.6	0.10087	0.102445819	-0.001575819
657.64	0.0998	0.1024471	-0.0026471
657.68	0.10077	0.102448381	-0.001678381
657.72	0.10458	0.102449662	0.002130338
657.76	0.10458	0.102450943	0.002129057
657.8	0.10474	0.102452224	0.002287776
657.84	0.10917	0.102453505	0.006716495
657.88	0.10163	0.102454786	-0.000824786
657.92	0.09807	0.102456067	-0.004386067
657.96	0.10835	0.102457348	0.005892652
658	0.1001	0.102458629	-0.002358629
658.04	0.1083	0.10245991	0.00584009
658.08	0.1083	0.102461191	0.005838809
658.12	0.10545	0.102462472	0.002987528
658.16	0.09893	0.102463753	-0.003533753
658.2	0.1	0.102465034	-0.002465034
658.24	0.10443	0.102466314	0.001963686
658.28	0.09898	0.102467595	-0.003487595
658.32	0.10097	0.102468876	-0.001498876
658.36	0.10097	0.102470157	-0.001500157
658.4	0.10479	0.102471438	0.002318562
658.44	0.10082	0.102472719	-0.001652719
658.48	0.10178	0.102474	-0.000694
658.52	0.10087	0.102475281	-0.001605281
658.56	0.10845	0.102476562	0.005973438
658.6	0.10173	0.102477843	-0.000747843
658.64	0.10514	0.102479124	0.002660876
658.68	0.10565	0.102480405	0.003169595
658.72	0.10082	0.102481686	-0.001661686
658.76	0.10367	0.102482967	0.001187033
658.8	0.09893	0.102484248	-0.003554248
658.84	0.10357	0.102485529	0.001084471
658.88	0.10285	0.10248681	0.00036319
658.92	0.10744	0.102488091	0.004951909
658.96	0.10749	0.102489371	0.005000629
659	0.09919	0.102490652	-0.003300652
659.04	0.09883	0.102491933	-0.003661933
659.08	0.1056	0.102493214	0.003106786
659.12	0.09919	0.102494495	-0.003304495
659.16	0.10754	0.102495776	0.005044224
659.2	0.09893	0.102497057	-0.003567057
659.24	0.09898	0.102498338	-0.003518338
659.28	0.10082	0.102499619	-0.001679619
659.32	0.10469	0.1025009	0.0021891
659.36	0.1082	0.102502181	0.005697819
659.4	0.10723	0.102503462	0.004726538
659.44	0.10194	0.102504743	-0.000564743
659.48	0.1028	0.102506024	0.000293976
659.52	0.10453	0.102507305	0.002022695
659.56	0.10464	0.102508586	0.002131414
659.6	0.1057	0.102509867	0.003190133
659.64	0.1083	0.102511148	0.005788852
659.68	0.11207	0.102512428	0.009557572
659.72	0.10637	0.102513709	0.003856291
659.76	0.10657	0.10251499	0.00405501
659.8	0.10927	0.102516271	0.006753729
659.84	0.10912	0.102517552	0.006602448
659.88	0.1055	0.102518833	0.002981167
659.92	0.10097	0.102520114	-0.001550114
659.96	0.11304	0.102521395	0.010518605
660	0.11192	0.102522676	0.009397324
660.04	0.10937	0.102523957	0.006846043
660.08	0.11782	0.102525238	0.015294762
660.12	0.11013	0.102526519	0.007603481
660.16	0.11044	0.1025278	0.0079122
660.2	0.11507	0.102529081	0.012540919
660.24	0.12169	0.102530362	0.019159638
660.28	0.12251	0.102531643	0.019978357
660.32	0.12225	0.102532924	0.019717076
660.36	0.12734	0.102534204	0.024805796
660.4	0.1252	0.102535485	0.022664515
660.44	0.12541	0.102536766	0.022873234
660.48	0.12251	0.102538047	0.019971953
660.52	0.12923	0.102539328	0.026690672
660.56	0.12729	0.102540609	0.024749391
660.6	0.122	0.10254189	0.01945811
660.64	0.12826	0.102543171	0.025716829
660.68	0.12332	0.102544452	0.020775548
660.72	0.12347	0.102545733	0.020924267
660.76	0.12439	0.102547014	0.021842986
660.8	0.12245	0.102548295	0.019901705
660.84	0.12444	0.102549576	0.021890424
660.88	0.11772	0.102550857	0.015169143
660.92	0.12622	0.102552138	0.023667862
660.96	0.12251	0.102553419	0.019956581
661	0.12164	0.1025547	0.0190853
661.04	0.12179	0.102555981	0.019234019
661.08	0.11874	0.102557261	0.016182739
661.12	0.12164	0.102558542	0.019081458
661.16	0.12332	0.102559823	0.020760177
661.2	0.11792	0.102561104	0.015358896
661.24	0.11696	0.102562385	0.014397615
661.28	0.1112	0.102563666	0.008636334
661.32	0.1112	0.102564947	0.008635053
661.36	0.10728	0.102566228	0.004713772
661.4	0.10815	0.102567509	0.005582491
661.44	0.1028	0.10256879	0.00023121
661.48	0.10565	0.102570071	0.003079929
661.52	0.11034	0.102571352	0.007768648
661.56	0.10565	0.102572633	0.003077367
661.6	0.10367	0.102573914	0.001096086
661.64	0.10387	0.102575195	0.001294805
661.68	0.10387	0.102576476	0.001293524
661.72	0.10464	0.102577757	0.002062243
661.76	0.1083	0.102579038	0.005720962
661.8	0.0999	0.102580318	-0.002680318
661.84	0.10183	0.102581599	-0.000751599
661.88	0.1052	0.10258288	0.00261712
661.92	0.10576	0.102584161	0.003175839
661.96	0.1054	0.102585442	0.002814558
662	0.10469	0.102586723	0.002103277
662.04	0.10301	0.102588004	0.000421996
662.08	0.10301	0.102589285	0.000420715
662.12	0.1057	0.102590566	0.003109434
662.16	0.09705	0.102591847	-0.005541847
662.2	0.09695	0.102593128	-0.005643128
662.24	0.10647	0.102594409	0.003875591
662.28	0.1085	0.10259569	0.00590431
662.32	0.10545	0.102596971	0.002853029
662.36	0.0971	0.102598252	-0.005498252
662.4	0.10265	0.102599533	5.04674E-05
662.44	0.10738	0.102600814	0.004779186
662.48	0.10469	0.102602095	0.002087905
662.52	0.10469	0.102603375	0.002086625
662.56	0.1082	0.102604656	0.005595344
662.6	0.10178	0.102605937	-0.000825937
662.64	0.10469	0.102607218	0.002082782
662.68	0.10845	0.102608499	0.005841501
662.72	0.10341	0.10260978	0.00080022
662.76	0.10901	0.102611061	0.006398939
662.8	0.10927	0.102612342	0.006657658
662.84	0.10362	0.102613623	0.001006377
662.88	0.10723	0.102614904	0.004615096
662.92	0.11207	0.102616185	0.009453815
662.96	0.10912	0.102617466	0.006502534
663	0.10255	0.102618747	-6.87468E-05
663.04	0.11411	0.102620028	0.011489972
663.08	0.11421	0.102621309	0.011588691
663.12	0.11502	0.10262259	0.01239741
663.16	0.11125	0.102623871	0.008626129
663.2	0.10535	0.102625152	0.002724848
663.24	0.10901	0.102626432	0.006383568
663.28	0.11197	0.102627713	0.009342287
663.32	0.1168	0.102628994	0.014171006
663.36	0.11472	0.102630275	0.012089725
663.4	0.11482	0.102631556	0.012188444
663.44	0.1083	0.102632837	0.005667163
663.48	0.11314	0.102634118	0.010505882
663.52	0.11619	0.102635399	0.013554601
663.56	0.11869	0.10263668	0.01605332
663.6	0.11589	0.102637961	0.013252039
663.64	0.12067	0.102639242	0.018030758
663.68	0.12067	0.102640523	0.018029477
663.72	0.11293	0.102641804	0.010288196
663.76	0.11848	0.102643085	0.015836915
663.8	0.11772	0.102644366	0.015075634
663.84	0.12271	0.102645647	0.020064353
663.88	0.11971	0.102646928	0.017063072
663.92	0.1196	0.102648209	0.016951791
663.96	0.12444	0.102649489	0.021790511
664	0.12439	0.10265077	0.02173923
664.04	0.12154	0.102652051	0.018887949
664.08	0.12368	0.102653332	0.021026668
664.12	0.1196	0.102654613	0.016945387
664.16	0.12363	0.102655894	0.020974106
664.2	0.12724	0.102657175	0.024582825
664.24	0.12179	0.102658456	0.019131544
664.28	0.12139	0.102659737	0.018730263
664.32	0.12128	0.102661018	0.018618982
664.36	0.12709	0.102662299	0.024427701
664.4	0.13208	0.10266358	0.02941642
664.44	0.12617	0.102664861	0.023505139
664.48	0.12531	0.102666142	0.022643858
664.52	0.13009	0.102667423	0.027422577
664.56	0.12999	0.102668704	0.027321296
664.6	0.13315	0.102669985	0.030480015
664.64	0.13585	0.102671266	0.033178734
664.68	0.12739	0.102672546	0.024717454
664.72	0.13198	0.102673827	0.029306173
664.76	0.13859	0.102675108	0.035914892
664.8	0.12816	0.102676389	0.025483611
664.84	0.12439	0.10267767	0.02171233
664.88	0.12434	0.102678951	0.021661049
664.92	0.13569	0.102680232	0.033009768
664.96	0.12714	0.102681513	0.024458487
665	0.1308	0.102682794	0.028117206
665.04	0.13294	0.102684075	0.030255925
665.08	0.12923	0.102685356	0.026544644
665.12	0.12841	0.102686637	0.025723363
665.16	0.12816	0.102687918	0.025472082
665.2	0.13045	0.102689199	0.027760801
665.24	0.12831	0.10269048	0.02561952
665.28	0.11965	0.102691761	0.016958239
665.32	0.12057	0.102693042	0.017876958
665.36	0.12439	0.102694322	0.021695678
665.4	0.11874	0.102695603	0.016044397
665.44	0.11874	0.102696884	0.016043116
665.48	0.12067	0.102698165	0.017971835
665.52	0.12149	0.102699446	0.018790554
665.56	0.11589	0.102700727	0.013189273
665.6	0.11965	0.102702008	0.016947992
665.64	0.12271	0.102703289	0.020006711
665.68	0.12006	0.10270457	0.01735543
665.72	0.11411	0.102705851	0.011404149
665.76	0.11431	0.102707132	0.011602868
665.8	0.11711	0.102708413	0.014401587
665.84	0.11584	0.102709694	0.013130306
665.88	0.11115	0.102710975	0.008439025
665.92	0.11395	0.102712256	0.011237744
665.96	0.10906	0.102713537	0.006346463
666	0.11599	0.102714818	0.013275182
666.04	0.11579	0.102716099	0.013073901
666.08	0.11685	0.102717379	0.014132621
666.12	0.11212	0.10271866	0.00940134
666.16	0.10642	0.102719941	0.003700059
666.2	0.10672	0.102721222	0.003998778
666.24	0.11411	0.102722503	0.011387497
666.28	0.10845	0.102723784	0.005726216
666.32	0.10469	0.102725065	0.001964935
666.36	0.10453	0.102726346	0.001803654
666.4	0.10464	0.102727627	0.001912373
666.44	0.10458	0.102728908	0.001851092
666.48	0.11039	0.102730189	0.007659811
666.52	0.10733	0.10273147	0.00459853
666.56	0.10464	0.102732751	0.001907249
666.6	0.10565	0.102734032	0.002915968
666.64	0.1057	0.102735313	0.002964687
666.68	0.10372	0.102736594	0.000983406
666.72	0.1084	0.102737875	0.005662125
666.76	0.1082	0.102739156	0.005460844
666.8	0.09985	0.102740436	-0.002890436
666.84	0.10189	0.102741717	-0.000851717
666.88	0.11217	0.102742998	0.009427002
666.92	0.11217	0.102744279	0.009425721
666.96	0.10178	0.10274556	-0.00096556
667	0.10448	0.102746841	0.001733159
667.04	0.10458	0.102748122	0.001831878
667.08	0.10372	0.102749403	0.000970597
667.12	0.10194	0.102750684	-0.000810684
667.16	0.1113	0.102751965	0.008548035
667.2	0.10458	0.102753246	0.001826754
667.24	0.10469	0.102754527	0.001935473
667.28	0.1028	0.102755808	4.41922E-05
667.32	0.10535	0.102757089	0.002592911
667.36	0.10718	0.10275837	0.00442163
667.4	0.10443	0.102759651	0.001670349
667.44	0.10071	0.102760932	-0.002050932
667.48	0.09583	0.102762213	-0.006932213
667.52	0.09603	0.102763493	-0.006733493
667.56	0.10199	0.102764774	-0.000774774
667.6	0.10464	0.102766055	0.001873945
667.64	0.10275	0.102767336	-1.73363E-05
667.68	0.10275	0.102768617	-1.86172E-05
667.72	0.10102	0.102769898	-0.001749898
667.76	0.10377	0.102771179	0.000998821
667.8	0.10397	0.10277246	0.00119754
667.84	0.10469	0.102773741	0.001916259
667.88	0.10657	0.102775022	0.003794978
667.92	0.10199	0.102776303	-0.000786303
667.96	0.10357	0.102777584	0.000792416
668	0.10749	0.102778865	0.004711135
668.04	0.10469	0.102780146	0.001909854
668.08	0.09608	0.102781427	-0.006701427
668.12	0.09608	0.102782708	-0.006702708
668.16	0.10097	0.102783989	-0.001813989
668.2	0.10932	0.10278527	0.00653473
668.24	0.1027	0.10278655	-8.65505E-05
668.28	0.10082	0.102787831	-0.001967831
668.32	0.10265	0.102789112	-0.000139112
668.36	0.10474	0.102790393	0.001949607
668.4	0.10479	0.102791674	0.001998326
668.44	0.10168	0.102792955	-0.001112955
668.48	0.10173	0.102794236	-0.001064236
668.52	0.10825	0.102795517	0.005454483
668.56	0.10087	0.102796798	-0.001926798
668.6	0.10051	0.102798079	-0.002288079
668.64	0.1027	0.10279936	-9.93599E-05
668.68	0.09695	0.102800641	-0.005850641
668.72	0.09674	0.102801922	-0.006061922
668.76	0.10652	0.102803203	0.003716797
668.8	0.09985	0.102804484	-0.002954484
668.84	0.09618	0.102805765	-0.006625765
668.88	0.10178	0.102807046	-0.001027046
668.92	0.10474	0.102808327	0.001931673
668.96	0.09995	0.102809607	-0.002859607
669	0.1	0.102810888	-0.002810888
669.04	0.10616	0.102812169	0.003347831
669.08	0.09802	0.10281345	-0.00479345
669.12	0.09985	0.102814731	-0.002964731
669.16	0.10352	0.102816012	0.000703988
669.2	0.10275	0.102817293	-6.72931E-05
669.24	0.10061	0.102818574	-0.002208574
669.28	0.10102	0.102819855	-0.001799855
669.32	0.10168	0.102821136	-0.001141136
669.36	0.10255	0.102822417	-0.000272417
669.4	0.1055	0.102823698	0.002676302
669.44	0.09853	0.102824979	-0.004294979
669.48	0.10621	0.10282626	0.00338374
669.52	0.10377	0.102827541	0.000942459
669.56	0.10143	0.102828822	-0.001398822
669.6	0.10153	0.102830103	-0.001300103
669.64	0.10642	0.102831384	0.003588616
669.68	0.10092	0.102832664	-0.001912664
669.72	0.10092	0.102833945	-0.001913945
669.76	0.10285	0.102835226	1.47737E-05
669.8	0.09878	0.102836507	-0.004056507
669.84	0.1	0.102837788	-0.002837788
669.88	0.0999	0.102839069	-0.002939069
669.92	0.1057	0.10284035	0.00285965
669.96	0.1001	0.102841631	-0.002741631
670	0.10637	0.102842912	0.003527088
670.04	0.10056	0.102844193	-0.002284193
670.08	0.10362	0.102845474	0.000774526
670.12	0.10479	0.102846755	0.001943245
670.16	0.10357	0.102848036	0.000721964
670.2	0.10357	0.102849317	0.000720683
670.24	0.10464	0.102850598	0.001789402
670.28	0.10927	0.102851879	0.006418121
670.32	0.10647	0.10285316	0.00361684
670.36	0.10163	0.10285444	-0.00122444
670.4	0.10199	0.102855721	-0.000865721
670.44	0.1029	0.102857002	4.29976E-05
670.48	0.1027	0.102858283	-0.000158283
670.52	0.10438	0.102859564	0.001520436
670.56	0.10733	0.102860845	0.004469155
670.6	0.09807	0.102862126	-0.004792126
670.64	0.10443	0.102863407	0.001566593
670.68	0.10382	0.102864688	0.000955312
670.72	0.10367	0.102865969	0.000804031
670.76	0.10367	0.10286725	0.00080275
670.8	0.10372	0.102868531	0.000851469
670.84	0.10178	0.102869812	-0.001089812
670.88	0.10474	0.102871093	0.001868907
670.92	0.10509	0.102872374	0.002217626
670.96	0.10189	0.102873655	-0.000983655
671	0.10657	0.102874936	0.003695064
671.04	0.10275	0.102876217	-0.000126217
671.08	0.10245	0.102877497	-0.000427497
671.12	0.10102	0.102878778	-0.001858778
671.16	0.09975	0.102880059	-0.003130059
671.2	0.10082	0.10288134	-0.00206134
671.24	0.10535	0.102882621	0.002467379
671.28	0.10183	0.102883902	-0.001053902
671.32	0.10199	0.102885183	-0.000895183
671.36	0.10178	0.102886464	-0.001106464
671.4	0.10453	0.102887745	0.001642255
671.44	0.10738	0.102889026	0.004490974
671.48	0.10285	0.102890307	-4.03069E-05
671.52	0.10453	0.102891588	0.001638412
671.56	0.10474	0.102892869	0.001847131
671.6	0.1029	0.10289415	5.85024E-06
671.64	0.10245	0.102895431	-0.000445431
671.68	0.10087	0.102896712	-0.002026712
671.72	0.1055	0.102897993	0.002602007
671.76	0.10489	0.102899274	0.001990726
671.8	0.10484	0.102900554	0.001939446
671.84	0.10077	0.102901835	-0.002131835
671.88	0.09934	0.102903116	-0.003563116
671.92	0.09903	0.102904397	-0.003874397
671.96	0.09914	0.102905678	-0.003765678
672	0.09608	0.102906959	-0.006826959
672.04	0.09506	0.10290824	-0.00784824
672.08	0.10275	0.102909521	-0.000159521
672.12	0.0999	0.102910802	-0.003010802
672.16	0.10545	0.102912083	0.002537917
672.2	0.1052	0.102913364	0.002286636
672.24	0.1057	0.102914645	0.002785355
672.28	0.10265	0.102915926	-0.000265926
672.32	0.09893	0.102917207	-0.003987207
672.36	0.10728	0.102918488	0.004361512
672.4	0.1027	0.102919769	-0.000219769
672.44	0.10204	0.10292105	-0.00088105
672.48	0.1	0.102922331	-0.002922331
672.52	0.10092	0.102923611	-0.002003611
672.56	0.10102	0.102924892	-0.001904892
672.6	0.10377	0.102926173	0.000843827
672.64	0.09797	0.102927454	-0.004957454
672.68	0.0999	0.102928735	-0.003028735
672.72	0.0998	0.102930016	-0.003130016
672.76	0.1056	0.102931297	0.002668703
672.8	0.10194	0.102932578	-0.000992578
672.84	0.10178	0.102933859	-0.001153859
672.88	0.10377	0.10293514	0.00083486
672.92	0.10082	0.102936421	-0.002116421
672.96	0.1055	0.102937702	0.002562298
673	0.10295	0.102938983	1.10172E-05
673.04	0.09802	0.102940264	-0.004920264
673.08	0.10509	0.102941545	0.002148455
673.12	0.1055	0.102942826	0.002557174
673.16	0.10102	0.102944107	-0.001924107
673.2	0.09791	0.102945388	-0.005035388
673.24	0.1084	0.102946668	0.005453332
673.28	0.10367	0.102947949	0.000722051
673.32	0.09705	0.10294923	-0.00589923
673.36	0.10937	0.102950511	0.006419489
673.4	0.10565	0.102951792	0.002698208
673.44	0.10545	0.102953073	0.002496927
673.48	0.10474	0.102954354	0.001785646
673.52	0.10637	0.102955635	0.003414365
673.56	0.09898	0.102956916	-0.003976916
673.6	0.10632	0.102958197	0.003361803
673.64	0.09883	0.102959478	-0.004129478
673.68	0.10774	0.102960759	0.004779241
673.72	0.10759	0.10296204	0.00462796
673.76	0.09914	0.102963321	-0.003823321
673.8	0.10189	0.102964602	-0.001074602
673.84	0.0998	0.102965883	-0.003165883
673.88	0.09623	0.102967164	-0.006737164
673.92	0.10942	0.102968445	0.006451555
673.96	0.10087	0.102969725	-0.002099725
674	0.10082	0.102971006	-0.002151006
674.04	0.10362	0.102972287	0.000647713
674.08	0.10071	0.102973568	-0.002263568
674.12	0.09883	0.102974849	-0.004144849
674.16	0.10178	0.10297613	-0.00119613
674.2	0.10443	0.102977411	0.001452589
674.24	0.1	0.102978692	-0.002978692
674.28	0.10545	0.102979973	0.002470027
674.32	0.10545	0.102981254	0.002468746
674.36	0.10173	0.102982535	-0.001252535
674.4	0.09985	0.102983816	-0.003133816
674.44	0.10189	0.102985097	-0.001095097
674.48	0.10275	0.102986378	-0.000236378
674.52	0.10275	0.102987659	-0.000237659
674.56	0.10367	0.10298894	0.00068106
674.6	0.10341	0.102990221	0.000419779
674.64	0.10835	0.102991502	0.005358498
674.68	0.10148	0.102992782	-0.001512782
674.72	0.11095	0.102994063	0.007955937
674.76	0.10051	0.102995344	-0.002485344
674.8	0.10005	0.102996625	-0.002946625
674.84	0.10087	0.102997906	-0.002127906
674.88	0.10265	0.102999187	-0.000349187
674.92	0.1026	0.103000468	-0.000400468
674.96	0.1055	0.103001749	0.002498251
675	0.09873	0.10300303	-0.00427303
675.04	0.1001	0.103004311	-0.002904311
675.08	0.10484	0.103005592	0.001834408
675.12	0.10097	0.103006873	-0.002036873
675.16	0.1028	0.103008154	-0.000208154
675.2	0.1027	0.103009435	-0.000309435
675.24	0.10178	0.103010716	-0.001230716
675.28	0.10637	0.103011997	0.003358003
675.32	0.09511	0.103013278	-0.007903278
675.36	0.10642	0.103014558	0.003405442
675.4	0.10087	0.103015839	-0.002145839
675.44	0.10362	0.10301712	0.00060288
675.48	0.10392	0.103018401	0.000901599
675.52	0.10265	0.103019682	-0.000369682
675.56	0.10489	0.103020963	0.001869037
675.6	0.1029	0.103022244	-0.000122244
675.64	0.09781	0.103023525	-0.005213525
675.68	0.10077	0.103024806	-0.002254806
675.72	0.10367	0.103026087	0.000643913
675.76	0.10082	0.103027368	-0.002207368
675.8	0.10097	0.103028649	-0.002058649
675.84	0.10458	0.10302993	0.00155007
675.88	0.10015	0.103031211	-0.002881211
675.92	0.10555	0.103032492	0.002517508
675.96	0.10382	0.103033773	0.000786227
676	0.10637	0.103035054	0.003334946
676.04	0.1056	0.103036335	0.002563665
676.08	0.1056	0.103037615	0.002562385
676.12	0.10458	0.103038896	0.001541104
676.16	0.10637	0.103040177	0.003329823
676.2	0.10077	0.103041458	-0.002271458
676.24	0.10469	0.103042739	0.001647261
676.28	0.10723	0.10304402	0.00418598
676.32	0.10372	0.103045301	0.000674699
676.36	0.1029	0.103046582	-0.000146582
676.4	0.1026	0.103047863	-0.000447863
676.44	0.1055	0.103049144	0.002450856
676.48	0.10071	0.103050425	-0.002340425
676.52	0.10377	0.103051706	0.000718294
676.56	0.10183	0.103052987	-0.001222987
676.6	0.1026	0.103054268	-0.000454268
676.64	0.10779	0.103055549	0.004734451
676.68	0.10738	0.10305683	0.00432317
676.72	0.10153	0.103058111	-0.001528111
676.76	0.10545	0.103059392	0.002390608
676.8	0.09791	0.103060672	-0.005150672
676.84	0.10733	0.103061953	0.004268047
676.88	0.10178	0.103063234	-0.001283234
676.92	0.10077	0.103064515	-0.002294515
676.96	0.10071	0.103065796	-0.002355796
677	0.10168	0.103067077	-0.001387077
677.04	0.10168	0.103068358	-0.001388358
677.08	0.09909	0.103069639	-0.003979639
677.12	0.09506	0.10307092	-0.00801092
677.16	0.10392	0.103072201	0.000847799
677.2	0.1055	0.103073482	0.002426518
677.24	0.09623	0.103074763	-0.006844763
677.28	0.09593	0.103076044	-0.007146044
677.32	0.09898	0.103077325	-0.004097325
677.36	0.10041	0.103078606	-0.002668606
677.4	0.10285	0.103079887	-0.000229887
677.44	0.10285	0.103081168	-0.000231168
677.48	0.10285	0.103082449	-0.000232449
677.52	0.10005	0.103083729	-0.003033729
677.56	0.1	0.10308501	-0.00308501
677.6	0.10382	0.103086291	0.000733709
677.64	0.10097	0.103087572	-0.002117572
677.68	0.09695	0.103088853	-0.006138853
677.72	0.1027	0.103090134	-0.000390134
677.76	0.10163	0.103091415	-0.001461415
677.8	0.10077	0.103092696	-0.002322696
677.84	0.10082	0.103093977	-0.002273977
677.88	0.10453	0.103095258	0.001434742
677.92	0.10453	0.103096539	0.001433461
677.96	0.10377	0.10309782	0.00067218
678	0.10357	0.103099101	0.000470899
678.04	0.10372	0.103100382	0.000619618
678.08	0.10382	0.103101663	0.000718337
678.12	0.10245	0.103102944	-0.000652944
678.16	0.1029	0.103104225	-0.000204225
678.2	0.10662	0.103105506	0.003514494
678.24	0.10367	0.103106786	0.000563214
678.28	0.10667	0.103108067	0.003561933
678.32	0.10183	0.103109348	-0.001279348
678.36	0.1027	0.103110629	-0.000410629
678.4	0.10341	0.10311191	0.00029809
678.44	0.10352	0.103113191	0.000406809
678.48	0.10194	0.103114472	-0.001174472
678.52	0.10555	0.103115753	0.002434247
678.56	0.10484	0.103117034	0.001722966
678.6	0.10189	0.103118315	-0.001228315
678.64	0.1026	0.103119596	-0.000519596
678.68	0.1027	0.103120877	-0.000420877
678.72	0.1112	0.103122158	0.008077842
678.76	0.11105	0.103123439	0.007926561
678.8	0.10453	0.10312472	0.00140528
678.84	0.10178	0.103126001	-0.001346001
678.88	0.10815	0.103127282	0.005022718
678.92	0.1055	0.103128563	0.002371437
678.96	0.10265	0.103129843	-0.000479843
679	0.10183	0.103131124	-0.001301124
679.04	0.10168	0.103132405	-0.001452405
679.08	0.10102	0.103133686	-0.002113686
679.12	0.10092	0.103134967	-0.002214967
679.16	0.10464	0.103136248	0.001503752
679.2	0.10087	0.103137529	-0.002267529
679.24	0.10932	0.10313881	0.00618119
679.28	0.10265	0.103140091	-0.000490091
679.32	0.1025	0.103141372	-0.000641372
679.36	0.10377	0.103142653	0.000627347
679.4	0.1057	0.103143934	0.002556066
679.44	0.1	0.103145215	-0.003145215
679.48	0.11212	0.103146496	0.008973504
679.52	0.10367	0.103147777	0.000522223
679.56	0.1	0.103149058	-0.003149058
679.6	0.10728	0.103150339	0.004129661
679.64	0.10759	0.10315162	0.00443838
679.68	0.10107	0.1031529	-0.0020829
679.72	0.10352	0.103154181	0.000365819
679.76	0.10071	0.103155462	-0.002445462
679.8	0.10642	0.103156743	0.003263257
679.84	0.09791	0.103158024	-0.005248024
679.88	0.10077	0.103159305	-0.002389305
679.92	0.10071	0.103160586	-0.002450586
679.96	0.10581	0.103161867	0.002648133
680	0.10917	0.103163148	0.006006852
680.04	0.09415	0.103164429	-0.009014429
680.08	0.1056	0.10316571	0.00243429
680.12	0.10733	0.103166991	0.004163009
680.16	0.10005	0.103168272	-0.003118272
680.2	0.09995	0.103169553	-0.003219553
680.24	0.10097	0.103170834	-0.002200834
680.28	0.10087	0.103172115	-0.002302115
680.32	0.10464	0.103173396	0.001466604
680.36	0.10265	0.103174676	-0.000524676
680.4	0.09893	0.103175957	-0.004245957
680.44	0.10927	0.103177238	0.006092762
680.48	0.10362	0.103178519	0.000441481
680.52	0.10377	0.1031798	0.0005902
680.56	0.0998	0.103181081	-0.003381081
680.6	0.10066	0.103182362	-0.002522362
680.64	0.10652	0.103183643	0.003336357
680.68	0.09715	0.103184924	-0.006034924
680.72	0.10199	0.103186205	-0.001196205
680.76	0.10082	0.103187486	-0.002367486
680.8	0.10092	0.103188767	-0.002268767
680.84	0.0998	0.103190048	-0.003390048
680.88	0.09776	0.103191329	-0.005431329
680.92	0.10362	0.10319261	0.00042739
680.96	0.10265	0.103193891	-0.000543891
681	0.09914	0.103195172	-0.004055172
681.04	0.10464	0.103196453	0.001443547
681.08	0.10372	0.103197733	0.000522267
681.12	0.10377	0.103199014	0.000570986
681.16	0.10642	0.103200295	0.003219705
681.2	0.10107	0.103201576	-0.002131576
681.24	0.10367	0.103202857	0.000467143
681.28	0.10367	0.103204138	0.000465862
681.32	0.10097	0.103205419	-0.002235419
681.36	0.10346	0.1032067	0.0002533
681.4	0.10372	0.103207981	0.000512019
681.44	0.09903	0.103209262	-0.004179262
681.48	0.1084	0.103210543	0.005189457
681.52	0.1029	0.103211824	-0.000311824
681.56	0.10346	0.103213105	0.000246895
681.6	0.0999	0.103214386	-0.003314386
681.64	0.10408	0.103215667	0.000864333
681.68	0.10372	0.103216948	0.000503052
681.72	0.10183	0.103218229	-0.001388229
681.76	0.0997	0.10321951	-0.00351951
681.8	0.09343	0.10322079	-0.00979079
681.84	0.10071	0.103222071	-0.002512071
681.88	0.10066	0.103223352	-0.002563352
681.92	0.1082	0.103224633	0.004975367
681.96	0.10545	0.103225914	0.002224086
682	0.10555	0.103227195	0.002322805
682.04	0.1054	0.103228476	0.002171524
682.08	0.09883	0.103229757	-0.004399757
682.12	0.09618	0.103231038	-0.007051038
682.16	0.10352	0.103232319	0.000287681
682.2	0.10392	0.1032336	0.0006864
682.24	0.1	0.103234881	-0.003234881
682.28	0.10005	0.103236162	-0.003186162
682.32	0.10265	0.103237443	-0.000587443
682.36	0.10168	0.103238724	-0.001558724
682.4	0.0998	0.103240005	-0.003440005
682.44	0.10601	0.103241286	0.002768714
682.48	0.10245	0.103242567	-0.000792567
682.52	0.10173	0.103243847	-0.001513847
682.56	0.10189	0.103245128	-0.001355128
682.6	0.1028	0.103246409	-0.000446409
682.64	0.10474	0.10324769	0.00149231
682.68	0.1084	0.103248971	0.005151029
682.72	0.10382	0.103250252	0.000569748
682.76	0.10285	0.103251533	-0.000401533
682.8	0.10265	0.103252814	-0.000602814
682.84	0.09695	0.103254095	-0.006304095
682.88	0.09685	0.103255376	-0.006405376
682.92	0.10387	0.103256657	0.000613343
682.96	0.09807	0.103257938	-0.005187938
683	0.10265	0.103259219	-0.000609219
683.04	0.10632	0.1032605	0.0030595
683.08	0.1001	0.103261781	-0.003161781
683.12	0.10632	0.103263062	0.003056938
683.16	0.10632	0.103264343	0.003055657
683.2	0.10005	0.103265624	-0.003215624
683.24	0.10275	0.103266904	-0.000516904
683.28	0.10392	0.103268185	0.000651815
683.32	0.10469	0.103269466	0.001420534
683.36	0.1083	0.103270747	0.005029253
683.4	0.10387	0.103272028	0.000597972
683.44	0.10071	0.103273309	-0.002563309
683.48	0.10071	0.10327459	-0.00256459
683.52	0.1053	0.103275871	0.002024129
683.56	0.10265	0.103277152	-0.000627152
683.6	0.1084	0.103278433	0.005121567
683.64	0.10372	0.103279714	0.000440286
683.68	0.10647	0.103280995	0.003189005
683.72	0.10265	0.103282276	-0.000632276
683.76	0.10265	0.103283557	-0.000633557
683.8	0.10346	0.103284838	0.000175162
683.84	0.10942	0.103286119	0.006133881
683.88	0.10565	0.1032874	0.0023626
683.92	0.09893	0.103288681	-0.004358681
683.96	0.10728	0.103289961	0.003990039
684	0.10021	0.103291242	-0.003081242
684.04	0.0999	0.103292523	-0.003392523
684.08	0.10805	0.103293804	0.004756196
684.12	0.10464	0.103295085	0.001344915
684.16	0.10652	0.103296366	0.003223634
684.2	0.10642	0.103297647	0.003122353
684.24	0.10285	0.103298928	-0.000448928
684.28	0.10382	0.103300209	0.000519791
684.32	0.1054	0.10330149	0.00209851
684.36	0.10525	0.103302771	0.001947229
684.4	0.1113	0.103304052	0.007995948
684.44	0.10749	0.103305333	0.004184667
684.48	0.10632	0.103306614	0.003013386
684.52	0.1084	0.103307895	0.005092105
684.56	0.10749	0.103309176	0.004180824
684.6	0.11018	0.103310457	0.006869543
684.64	0.11018	0.103311738	0.006868262
684.68	0.10632	0.103313018	0.003006982
684.72	0.10917	0.103314299	0.005855701
684.76	0.10901	0.10331558	0.00569442
684.8	0.10749	0.103316861	0.004173139
684.84	0.10835	0.103318142	0.005031858
684.88	0.11054	0.103319423	0.007220577
684.92	0.10744	0.103320704	0.004119296
684.96	0.10265	0.103321985	-0.000671985
685	0.10749	0.103323266	0.004166734
685.04	0.11105	0.103324547	0.007725453
685.08	0.10738	0.103325828	0.004054172
685.12	0.10922	0.103327109	0.005892891
685.16	0.11696	0.10332839	0.01363161
685.2	0.11202	0.103329671	0.008690329
685.24	0.11212	0.103330952	0.008789048
685.28	0.10662	0.103332233	0.003287767
685.32	0.11319	0.103333514	0.009856486
685.36	0.11411	0.103334794	0.010775206
685.4	0.11309	0.103336075	0.009753925
685.44	0.10723	0.103337356	0.003892644
685.48	0.1084	0.103338637	0.005061363
685.52	0.1083	0.103339918	0.004960082
685.56	0.1111	0.103341199	0.007758801
685.6	0.10652	0.10334248	0.00317752
685.64	0.10825	0.103343761	0.004906239
685.68	0.11467	0.103345042	0.011324958
685.72	0.10708	0.103346323	0.003733677
685.76	0.11212	0.103347604	0.008772396
685.8	0.11125	0.103348885	0.007901115
685.84	0.11141	0.103350166	0.008059834
685.88	0.11212	0.103351447	0.008768553
685.92	0.11309	0.103352728	0.009737272
685.96	0.10458	0.103354009	0.001225991
686	0.10927	0.10335529	0.00591471
686.04	0.10901	0.103356571	0.005653429
686.08	0.11202	0.103357851	0.008662149
686.12	0.11212	0.103359132	0.008760868
686.16	0.10912	0.103360413	0.005759587
686.2	0.10912	0.103361694	0.005758306
686.24	0.10097	0.103362975	-0.002392975
686.28	0.10637	0.103364256	0.003005744
686.32	0.10642	0.103365537	0.003054463
686.36	0.10754	0.103366818	0.004173182
686.4	0.10759	0.103368099	0.004221901
686.44	0.10749	0.10336938	0.00412062
686.48	0.10352	0.103370661	0.000149339
686.52	0.10275	0.103371942	-0.000621942
686.56	0.10448	0.103373223	0.001106777
686.6	0.10362	0.103374504	0.000245496
686.64	0.10183	0.103375785	-0.001545785
686.68	0.10703	0.103377066	0.003652934
686.72	0.10749	0.103378347	0.004111653
686.76	0.09781	0.103379628	-0.005569628
686.8	0.10535	0.103380908	0.001969092
686.84	0.10657	0.103382189	0.003187811
686.88	0.10652	0.10338347	0.00313653
686.92	0.1055	0.103384751	0.002115249
686.96	0.10265	0.103386032	-0.000736032
687	0.10265	0.103387313	-0.000737313
687.04	0.1054	0.103388594	0.002011406
687.08	0.10087	0.103389875	-0.002519875
687.12	0.10626	0.103391156	0.002868844
687.16	0.1027	0.103392437	-0.000692437
687.2	0.10448	0.103393718	0.001086282
687.24	0.10637	0.103394999	0.002975001
687.28	0.10178	0.10339628	-0.00161628
687.32	0.10183	0.103397561	-0.001567561
687.36	0.10183	0.103398842	-0.001568842
687.4	0.10097	0.103400123	-0.002430123
687.44	0.10005	0.103401404	-0.003351404
687.48	0.10189	0.103402685	-0.001512685
687.52	0.10733	0.103403965	0.003926035
687.56	0.10092	0.103405246	-0.002485246
687.6	0.10051	0.103406527	-0.002896527
687.64	0.10199	0.103407808	-0.001417808
687.68	0.1026	0.103409089	-0.000809089
687.72	0.09883	0.10341037	-0.00458037
687.76	0.10087	0.103411651	-0.002541651
687.8	0.10957	0.103412932	0.006157068
687.84	0.10397	0.103414213	0.000555787
687.88	0.10392	0.103415494	0.000504506
687.92	0.10922	0.103416775	0.005803225
687.96	0.10657	0.103418056	0.003151944
688	0.10082	0.103419337	-0.002599337
688.04	0.10341	0.103420618	-1.06177E-05
688.08	0.10168	0.103421899	-0.001741899
688.12	0.10703	0.10342318	0.00360682
688.16	0.10525	0.103424461	0.001825539
688.2	0.1055	0.103425742	0.002074258
688.24	0.10565	0.103427022	0.002222978
688.28	0.09919	0.103428303	-0.004238303
688.32	0.10621	0.103429584	0.002780416
688.36	0.10677	0.103430865	0.003339135
688.4	0.10667	0.103432146	0.003237854
688.44	0.10382	0.103433427	0.000386573
688.48	0.10372	0.103434708	0.000285292
688.52	0.10372	0.103435989	0.000284011
688.56	0.09888	0.10343727	-0.00455727
688.6	0.10616	0.103438551	0.002721449
688.64	0.10738	0.103439832	0.003940168
688.68	0.10489	0.103441113	0.001448887
688.72	0.10097	0.103442394	-0.002472394
688.76	0.10066	0.103443675	-0.002783675
688.8	0.10372	0.103444956	0.000275044
688.84	0.10102	0.103446237	-0.002426237
688.88	0.10647	0.103447518	0.003022482
688.92	0.10402	0.103448799	0.000571201
688.96	0.09893	0.103450079	-0.004520079
689	0.10255	0.10345136	-0.00090136
689.04	0.10173	0.103452641	-0.001722641
689.08	0.10189	0.103453922	-0.001563922
689.12	0.10173	0.103455203	-0.001725203
689.16	0.10295	0.103456484	-0.000506484
689.2	0.10183	0.103457765	-0.001627765
689.24	0.10352	0.103459046	6.09539E-05
689.28	0.10535	0.103460327	0.001889673
689.32	0.10652	0.103461608	0.003058392
689.36	0.10642	0.103462889	0.002957111
689.4	0.10906	0.10346417	0.00559583
689.44	0.1083	0.103465451	0.004834549
689.48	0.1056	0.103466732	0.002133268
689.52	0.1055	0.103468013	0.002031987
689.56	0.10178	0.103469294	-0.001689294
689.6	0.10458	0.103470575	0.001109425
689.64	0.10642	0.103471856	0.002948144
689.68	0.10652	0.103473136	0.003046864
689.72	0.10825	0.103474417	0.004775583
689.76	0.10066	0.103475698	-0.002815698
689.8	0.10652	0.103476979	0.003043021
689.84	0.10382	0.10347826	0.00034174
689.88	0.10632	0.103479541	0.002840459
689.92	0.10189	0.103480822	-0.001590822
689.96	0.10194	0.103482103	-0.001542103