	m	t	
f	0.000015824	0.0943241	
			
			
X in nm	Y Signal 	f	y-f
625.04	0.11125	0.104214733	0.007035267
625.08	0.11013	0.104215366	0.005914634
625.12	0.10545	0.104215999	0.001234001
625.16	0.1055	0.104216632	0.001283368
625.2	0.11217	0.104217265	0.007952735
625.24	0.10835	0.104217898	0.004132102
625.28	0.10805	0.104218531	0.003831469
625.32	0.10464	0.104219164	0.000420836
625.36	0.10168	0.104219797	-0.002539797
625.4	0.11095	0.10422043	0.00672957
625.44	0.1111	0.104221063	0.006878937
625.48	0.1084	0.104221696	0.004178304
625.52	0.10469	0.104222328	0.000467672
625.56	0.10738	0.104222961	0.003157039
625.6	0.10555	0.104223594	0.001326406
625.64	0.10479	0.104224227	0.000565773
625.68	0.10744	0.10422486	0.00321514
625.72	0.10942	0.104225493	0.005194507
625.76	0.10906	0.104226126	0.004833874
625.8	0.10576	0.104226759	0.001533241
625.84	0.10738	0.104227392	0.003152608
625.88	0.10275	0.104228025	-0.001478025
625.92	0.10906	0.104228658	0.004831342
625.96	0.10565	0.104229291	0.001420709
626	0.10545	0.104229924	0.001220076
626.04	0.10576	0.104230557	0.001529443
626.08	0.10845	0.10423119	0.00421881
626.12	0.1084	0.104231823	0.004168177
626.16	0.1056	0.104232456	0.001367544
626.2	0.10453	0.104233089	0.000296911
626.24	0.10423	0.104233722	-3.72176E-06
626.28	0.10626	0.104234355	0.002025645
626.32	0.10667	0.104234988	0.002435012
626.36	0.11309	0.104235621	0.008854379
626.4	0.10387	0.104236254	-0.000366254
626.44	0.11497	0.104236887	0.010733113
626.48	0.10102	0.10423752	-0.00321752
626.52	0.10372	0.104238152	-0.000518152
626.56	0.11013	0.104238785	0.005891215
626.6	0.10749	0.104239418	0.003250582
626.64	0.10728	0.104240051	0.003039949
626.68	0.10275	0.104240684	-0.001490684
626.72	0.1084	0.104241317	0.004158683
626.76	0.11482	0.10424195	0.01057805
626.8	0.10535	0.104242583	0.001107417
626.84	0.10647	0.104243216	0.002226784
626.88	0.10469	0.104243849	0.000446151
626.92	0.10474	0.104244482	0.000495518
626.96	0.10856	0.104245115	0.004314885
627	0.1084	0.104245748	0.004154252
627.04	0.10927	0.104246381	0.005023619
627.08	0.10896	0.104247014	0.004712986
627.12	0.11141	0.104247647	0.007162353
627.16	0.11227	0.10424828	0.00802172
627.2	0.10922	0.104248913	0.004971087
627.24	0.10947	0.104249546	0.005220454
627.28	0.11507	0.104250179	0.010819821
627.32	0.11136	0.104250812	0.007109188
627.36	0.11202	0.104251445	0.007768555
627.4	0.1168	0.104252078	0.012547922
627.44	0.11293	0.104252711	0.008677289
627.48	0.11502	0.104253344	0.010766656
627.52	0.11497	0.104253976	0.010716024
627.56	0.11217	0.104254609	0.007915391
627.6	0.12245	0.104255242	0.018194758
627.64	0.11309	0.104255875	0.008834125
627.68	0.11227	0.104256508	0.008013492
627.72	0.11609	0.104257141	0.011832859
627.76	0.11186	0.104257774	0.007602226
627.8	0.11222	0.104258407	0.007961593
627.84	0.11945	0.10425904	0.01519096
627.88	0.12123	0.104259673	0.016970327
627.92	0.11696	0.104260306	0.012699694
627.96	0.11472	0.104260939	0.010459061
628	0.11818	0.104261572	0.013918428
628.04	0.11884	0.104262205	0.014577795
628.08	0.12072	0.104262838	0.016457162
628.12	0.12062	0.104263471	0.016356529
628.16	0.12149	0.104264104	0.017225896
628.2	0.12816	0.104264737	0.023895263
628.24	0.12077	0.10426537	0.01650463
628.28	0.13004	0.104266003	0.025773997
628.32	0.12261	0.104266636	0.018343364
628.36	0.12444	0.104267269	0.020172731
628.4	0.12449	0.104267902	0.020222098
628.44	0.13478	0.104268535	0.030511465
628.48	0.12454	0.104269168	0.020270832
628.52	0.12515	0.1042698	0.0208802
628.56	0.12164	0.104270433	0.017369567
628.6	0.1303	0.104271066	0.026028934
628.64	0.12826	0.104271699	0.023988301
628.68	0.12826	0.104272332	0.023987668
628.72	0.12352	0.104272965	0.019247035
628.76	0.12816	0.104273598	0.023886402
628.8	0.13198	0.104274231	0.027705769
628.84	0.12928	0.104274864	0.025005136
628.88	0.11874	0.104275497	0.014464503
628.92	0.12342	0.10427613	0.01914387
628.96	0.12062	0.104276763	0.016343237
629	0.12093	0.104277396	0.016652604
629.04	0.12653	0.104278029	0.022251971
629.08	0.12459	0.104278662	0.020311338
629.12	0.11696	0.104279295	0.012680705
629.16	0.11965	0.104279928	0.015370072
629.2	0.11767	0.104280561	0.013389439
629.24	0.11227	0.104281194	0.007988806
629.28	0.11232	0.104281827	0.008038173
629.32	0.11864	0.10428246	0.01435754
629.36	0.11691	0.104283093	0.012626907
629.4	0.11604	0.104283726	0.011756274
629.44	0.11492	0.104284359	0.010635641
629.48	0.11487	0.104284992	0.010585008
629.52	0.11105	0.104285624	0.006764376
629.56	0.10728	0.104286257	0.002993743
629.6	0.10733	0.10428689	0.00304311
629.64	0.11405	0.104287523	0.009762477
629.68	0.10642	0.104288156	0.002131844
629.72	0.10448	0.104288789	0.000191211
629.76	0.1111	0.104289422	0.006810578
629.8	0.10194	0.104290055	-0.002350055
629.84	0.1027	0.104290688	-0.001590688
629.88	0.10285	0.104291321	-0.001441321
629.92	0.10723	0.104291954	0.002938046
629.96	0.10357	0.104292587	-0.000722587
630	0.10265	0.10429322	-0.00164322
630.04	0.10204	0.104293853	-0.002253853
630.08	0.10555	0.104294486	0.001255514
630.12	0.1056	0.104295119	0.001304881
630.16	0.10586	0.104295752	0.001564248
630.2	0.10453	0.104296385	0.000233615
630.24	0.10173	0.104297018	-0.002567018
630.28	0.1054	0.104297651	0.001102349
630.32	0.10377	0.104298284	-0.000528284
630.36	0.10362	0.104298917	-0.000678917
630.4	0.10189	0.10429955	-0.00240955
630.44	0.10189	0.104300183	-0.002410183
630.48	0.10183	0.104300816	-0.002470816
630.52	0.10077	0.104301448	-0.003531448
630.56	0.10102	0.104302081	-0.003282081
630.6	0.10744	0.104302714	0.003137286
630.64	0.10402	0.104303347	-0.000283347
630.68	0.10576	0.10430398	0.00145602
630.72	0.10382	0.104304613	-0.000484613
630.76	0.10362	0.104305246	-0.000685246
630.8	0.10275	0.104305879	-0.001555879
630.84	0.09674	0.104306512	-0.007566512
630.88	0.09959	0.104307145	-0.004717145
630.92	0.09975	0.104307778	-0.004557778
630.96	0.10652	0.104308411	0.002211589
631	0.10189	0.104309044	-0.002419044
631.04	0.10178	0.104309677	-0.002529677
631.08	0.10708	0.10431031	0.00276969
631.12	0.09807	0.104310943	-0.006240943
631.16	0.09812	0.104311576	-0.006191576
631.2	0.11024	0.104312209	0.005927791
631.24	0.10937	0.104312842	0.005057158
631.28	0.1085	0.104313475	0.004186525
631.32	0.12531	0.104314108	0.020995892
631.36	0.12546	0.104314741	0.021145259
631.4	0.11787	0.104315374	0.013554626
631.44	0.12907	0.104316007	0.024753993
631.48	0.1303	0.10431664	0.02598336
631.52	0.13569	0.104317272	0.031372728
631.56	0.14053	0.104317905	0.036212095
631.6	0.13732	0.104318538	0.033001462
631.64	0.13778	0.104319171	0.033460829
631.68	0.13987	0.104319804	0.035550196
631.72	0.15473	0.104320437	0.050409563
631.76	0.14883	0.10432107	0.04450893
631.8	0.15743	0.104321703	0.053108297
631.84	0.16196	0.104322336	0.057637664
631.88	0.18141	0.104322969	0.077087031
631.92	0.1668	0.104323602	0.062476398
631.96	0.1668	0.104324235	0.062475765
632	0.1695	0.104324868	0.065175132
632.04	0.18197	0.104325501	0.077644499
632.08	0.1696	0.104326134	0.065273866
632.12	0.16782	0.104326767	0.063493233
632.16	0.18294	0.1043274	0.0786126
632.2	0.18116	0.104328033	0.076831967
632.24	0.18121	0.104328666	0.076881334
632.28	0.18314	0.104329299	0.078810701
632.32	0.18482	0.104329932	0.080490068
632.36	0.18671	0.104330565	0.082379435
632.4	0.18391	0.104331198	0.079578802
632.44	0.17149	0.104331831	0.067158169
632.48	0.18391	0.104332464	0.079577536
632.52	0.18381	0.104333096	0.079476904
632.56	0.16604	0.104333729	0.061706271
632.6	0.16945	0.104334362	0.065115638
632.64	0.16762	0.104334995	0.063285005
632.68	0.1641	0.104335628	0.059764372
632.72	0.16716	0.104336261	0.062823739
632.76	0.15473	0.104336894	0.050393106
632.8	0.1614	0.104337527	0.057062473
632.84	0.1614	0.10433816	0.05706184
632.88	0.15081	0.104338793	0.046471207
632.92	0.15071	0.104339426	0.046370574
632.96	0.14532	0.104340059	0.040979941
633	0.13478	0.104340692	0.030439308
633.04	0.14236	0.104341325	0.038018675
633.08	0.14012	0.104341958	0.035778042
633.12	0.14048	0.104342591	0.036137409
633.16	0.12918	0.104343224	0.024836776
633.2	0.13004	0.104343857	0.025696143
633.24	0.12953	0.10434449	0.02518551
633.28	0.13381	0.104345123	0.029464877
633.32	0.11991	0.104345756	0.015564244
633.36	0.12505	0.104346389	0.020703611
633.4	0.12551	0.104347022	0.021162978
633.44	0.11853	0.104347655	0.014182345
633.48	0.11186	0.104348288	0.007511712
633.52	0.10728	0.10434892	0.00293108
633.56	0.10901	0.104349553	0.004660447
633.6	0.10733	0.104350186	0.002979814
633.64	0.11013	0.104350819	0.005779181
633.68	0.10952	0.104351452	0.005168548
633.72	0.10922	0.104352085	0.004867915
633.76	0.1056	0.104352718	0.001247282
633.8	0.10458	0.104353351	0.000226649
633.84	0.10453	0.104353984	0.000176016
633.88	0.10168	0.104354617	-0.002674617
633.92	0.1056	0.10435525	0.00124475
633.96	0.09613	0.104355883	-0.008225883
634	0.09608	0.104356516	-0.008276516
634.04	0.10367	0.104357149	-0.000687149
634.08	0.10173	0.104357782	-0.002627782
634.12	0.10082	0.104358415	-0.003538415
634.16	0.09893	0.104359048	-0.005429048
634.2	0.10555	0.104359681	0.001190319
634.24	0.09715	0.104360314	-0.007210314
634.28	0.10825	0.104360947	0.003889053
634.32	0.10871	0.10436158	0.00434842
634.36	0.10168	0.104362213	-0.002682213
634.4	0.10219	0.104362846	-0.002172846
634.44	0.10178	0.104363479	-0.002583479
634.48	0.10199	0.104364112	-0.002374112
634.52	0.10199	0.104364744	-0.002374744
634.56	0.10189	0.104365377	-0.002475377
634.6	0.10194	0.10436601	-0.00242601
634.64	0.10387	0.104366643	-0.000496643
634.68	0.10183	0.104367276	-0.002537276
634.72	0.10458	0.104367909	0.000212091
634.76	0.10387	0.104368542	-0.000498542
634.8	0.10077	0.104369175	-0.003599175
634.84	0.10367	0.104369808	-0.000699808
634.88	0.10377	0.104370441	-0.000600441
634.92	0.10759	0.104371074	0.003218926
634.96	0.09802	0.104371707	-0.006351707
635	0.10071	0.10437234	-0.00366234
635.04	0.10265	0.104372973	-0.001722973
635.08	0.10097	0.104373606	-0.003403606
635.12	0.10066	0.104374239	-0.003714239
635.16	0.10443	0.104374872	5.51282E-05
635.2	0.10464	0.104375505	0.000264495
635.24	0.10087	0.104376138	-0.003506138
635.28	0.1026	0.104376771	-0.001776771
635.32	0.10352	0.104377404	-0.000857404
635.36	0.10082	0.104378037	-0.003558037
635.4	0.10082	0.10437867	-0.00355867
635.44	0.10306	0.104379303	-0.001319303
635.48	0.1026	0.104379936	-0.001779936
635.52	0.1	0.104380568	-0.004380568
635.56	0.10372	0.104381201	-0.000661201
635.6	0.10183	0.104381834	-0.002551834
635.64	0.10015	0.104382467	-0.004232467
635.68	0.10082	0.1043831	-0.0035631
635.72	0.1	0.104383733	-0.004383733
635.76	0.1	0.104384366	-0.004384366
635.8	0.10372	0.104384999	-0.000664999
635.84	0.10178	0.104385632	-0.002605632
635.88	0.0999	0.104386265	-0.004486265
635.92	0.09995	0.104386898	-0.004436898
635.96	0.10448	0.104387531	9.2469E-05
636	0.10708	0.104388164	0.002691836
636.04	0.1026	0.104388797	-0.001788797
636.08	0.10265	0.10438943	-0.00173943
636.12	0.09995	0.104390063	-0.004440063
636.16	0.10097	0.104390696	-0.003420696
636.2	0.09898	0.104391329	-0.005411329
636.24	0.09623	0.104391962	-0.008161962
636.28	0.10173	0.104392595	-0.002662595
636.32	0.10189	0.104393228	-0.002503228
636.36	0.10173	0.104393861	-0.002663861
636.4	0.1029	0.104394494	-0.001494494
636.44	0.0997	0.104395127	-0.004695127
636.48	0.10173	0.10439576	-0.00266576
636.52	0.10647	0.104396392	0.002073608
636.56	0.10071	0.104397025	-0.003687025
636.6	0.10657	0.104397658	0.002172342
636.64	0.09949	0.104398291	-0.004908291
636.68	0.09995	0.104398924	-0.004448924
636.72	0.10204	0.104399557	-0.002359557
636.76	0.09909	0.10440019	-0.00531019
636.8	0.10759	0.104400823	0.003189177
636.84	0.09898	0.104401456	-0.005421456
636.88	0.09893	0.104402089	-0.005472089
636.92	0.10097	0.104402722	-0.003432722
636.96	0.10077	0.104403355	-0.003633355
637	0.10372	0.104403988	-0.000683988
637.04	0.09888	0.104404621	-0.005524621
637.08	0.10479	0.104405254	0.000384746
637.12	0.10932	0.104405887	0.004914113
637.16	0.10469	0.10440652	0.00028348
637.2	0.10092	0.104407153	-0.003487153
637.24	0.10082	0.104407786	-0.003587786
637.28	0.10458	0.104408419	0.000171581
637.32	0.10005	0.104409052	-0.004359052
637.36	0.10285	0.104409685	-0.001559685
637.4	0.1027	0.104410318	-0.001710318
637.44	0.09878	0.104410951	-0.005630951
637.48	0.10082	0.104411584	-0.003591584
637.52	0.10092	0.104412216	-0.003492216
637.56	0.10082	0.104412849	-0.003592849
637.6	0.10295	0.104413482	-0.001463482
637.64	0.09995	0.104414115	-0.004464115
637.68	0.10458	0.104414748	0.000165252
637.72	0.10071	0.104415381	-0.003705381
637.76	0.10362	0.104416014	-0.000796014
637.8	0.10662	0.104416647	0.002203353
637.84	0.10657	0.10441728	0.00215272
637.88	0.1	0.104417913	-0.004417913
637.92	0.10845	0.104418546	0.004031454
637.96	0.10565	0.104419179	0.001230821
638	0.10357	0.104419812	-0.000849812
638.04	0.10453	0.104420445	0.000109555
638.08	0.10464	0.104421078	0.000218922
638.12	0.10744	0.104421711	0.003018289
638.16	0.10733	0.104422344	0.002907656
638.2	0.10545	0.104422977	0.001027023
638.24	0.10576	0.10442361	0.00133639
638.28	0.09888	0.104424243	-0.005544243
638.32	0.10005	0.104424876	-0.004374876
638.36	0.10265	0.104425509	-0.001775509
638.4	0.1056	0.104426142	0.001173858
638.44	0.10555	0.104426775	0.001123225
638.48	0.1027	0.104427408	-0.001727408
638.52	0.11105	0.10442804	0.00662196
638.56	0.0998	0.104428673	-0.004628673
638.6	0.10082	0.104429306	-0.003609306
638.64	0.10367	0.104429939	-0.000759939
638.68	0.10377	0.104430572	-0.000660572
638.72	0.10367	0.104431205	-0.000761205
638.76	0.10667	0.104431838	0.002238162
638.8	0.10657	0.104432471	0.002137529
638.84	0.10392	0.104433104	-0.000513104
638.88	0.1113	0.104433737	0.006866263
638.92	0.10173	0.10443437	-0.00270437
638.96	0.10932	0.104435003	0.004884997
639	0.10362	0.104435636	-0.000815636
639.04	0.10341	0.104436269	-0.001026269
639.08	0.10922	0.104436902	0.004783098
639.12	0.1055	0.104437535	0.001062465
639.16	0.10458	0.104438168	0.000141832
639.2	0.10285	0.104438801	-0.001588801
639.24	0.11018	0.104439434	0.005740566
639.28	0.10937	0.104440067	0.004929933
639.32	0.10912	0.1044407	0.0046793
639.36	0.10647	0.104441333	0.002028667
639.4	0.10856	0.104441966	0.004118034
639.44	0.1085	0.104442599	0.004057401
639.48	0.10759	0.104443232	0.003146768
639.52	0.1168	0.104443864	0.012356136
639.56	0.1112	0.104444497	0.006755503
639.6	0.11115	0.10444513	0.00670487
639.64	0.11212	0.104445763	0.007674237
639.68	0.11426	0.104446396	0.009813604
639.72	0.11889	0.104447029	0.014442971
639.76	0.11273	0.104447662	0.008282338
639.8	0.114	0.104448295	0.009551705
639.84	0.11192	0.104448928	0.007471072
639.88	0.11222	0.104449561	0.007770439
639.92	0.11202	0.104450194	0.007569806
639.96	0.11309	0.104450827	0.008639173
640	0.11416	0.10445146	0.00970854
640.04	0.11324	0.104452093	0.008787907
640.08	0.11304	0.104452726	0.008587274
640.12	0.11385	0.104453359	0.009396641
640.16	0.11599	0.104453992	0.011536008
640.2	0.11609	0.104454625	0.011635375
640.24	0.11222	0.104455258	0.007764742
640.28	0.10927	0.104455891	0.004814109
640.32	0.11405	0.104456524	0.009593476
640.36	0.11309	0.104457157	0.008632843
640.4	0.11685	0.10445779	0.01239221
640.44	0.10906	0.104458423	0.004601577
640.48	0.11212	0.104459056	0.007660944
640.52	0.11212	0.104459688	0.007660312
640.56	0.11487	0.104460321	0.010409679
640.6	0.11502	0.104460954	0.010559046
640.64	0.11507	0.104461587	0.010608413
640.68	0.11212	0.10446222	0.00765778
640.72	0.1113	0.104462853	0.006837147
640.76	0.11024	0.104463486	0.005776514
640.8	0.11024	0.104464119	0.005775881
640.84	0.11283	0.104464752	0.008365248
640.88	0.1085	0.104465385	0.004034615
640.92	0.1085	0.104466018	0.004033982
640.96	0.10555	0.104466651	0.001083349
641	0.1085	0.104467284	0.004032716
641.04	0.10387	0.104467917	-0.000597917
641.08	0.10392	0.10446855	-0.00054855
641.12	0.11029	0.104469183	0.005820817
641.16	0.10545	0.104469816	0.000980184
641.2	0.10937	0.104470449	0.004899551
641.24	0.11304	0.104471082	0.008568918
641.28	0.11304	0.104471715	0.008568285
641.32	0.11604	0.104472348	0.011567652
641.36	0.10912	0.104472981	0.004647019
641.4	0.10922	0.104473614	0.004746386
641.44	0.10912	0.104474247	0.004645753
641.48	0.11487	0.10447488	0.01039512
641.52	0.10845	0.104475512	0.003974488
641.56	0.10906	0.104476145	0.004583855
641.6	0.11105	0.104476778	0.006573222
641.64	0.114	0.104477411	0.009522589
641.68	0.1139	0.104478044	0.009421956
641.72	0.11034	0.104478677	0.005861323
641.76	0.11186	0.10447931	0.00738069
641.8	0.11482	0.104479943	0.010340057
641.84	0.11431	0.104480576	0.009829424
641.88	0.11691	0.104481209	0.012428791
641.92	0.11889	0.104481842	0.014408158
641.96	0.11904	0.104482475	0.014557525
642	0.12648	0.104483108	0.021996892
642.04	0.12821	0.104483741	0.023726259
642.08	0.12195	0.104484374	0.017465626
642.12	0.12755	0.104485007	0.023064993
642.16	0.12332	0.10448564	0.01883436
642.2	0.12918	0.104486273	0.024693727
642.24	0.12994	0.104486906	0.025453094
642.28	0.12999	0.104487539	0.025502461
642.32	0.13177	0.104488172	0.027281828
642.36	0.14022	0.104488805	0.035731195
642.4	0.14689	0.104489438	0.042400562
642.44	0.1582	0.104490071	0.053709929
642.48	0.15738	0.104490704	0.052889296
642.52	0.16135	0.104491336	0.056858664
642.56	0.1612	0.104491969	0.056708031
642.6	0.17042	0.104492602	0.065927398
642.64	0.18381	0.104493235	0.079316765
642.68	0.18508	0.104493868	0.080586132
642.72	0.18768	0.104494501	0.083185499
642.76	0.20626	0.104495134	0.101764866
642.8	0.20239	0.104495767	0.097894233
642.84	0.22332	0.1044964	0.1188236
642.88	0.22337	0.104497033	0.118872967
642.92	0.23192	0.104497666	0.127422334
642.96	0.23946	0.104498299	0.134961701
643	0.24786	0.104498932	0.143361068
643.04	0.25554	0.104499565	0.151040435
643.08	0.25743	0.104500198	0.152929802
643.12	0.27902	0.104500831	0.174519169
643.16	0.27896	0.104501464	0.174458536
643.2	0.27255	0.104502097	0.168047903
643.24	0.26506	0.10450273	0.16055727
643.28	0.27326	0.104503363	0.168756637
643.32	0.25641	0.104503996	0.151906004
643.36	0.25916	0.104504629	0.154655371
643.4	0.26094	0.104505262	0.156434738
643.44	0.26089	0.104505895	0.156384105
643.48	0.26506	0.104506528	0.160553472
643.52	0.25651	0.10450716	0.15200284
643.56	0.25453	0.104507793	0.150022207
643.6	0.24999	0.104508426	0.145481574
643.64	0.23548	0.104509059	0.130970941
643.68	0.22729	0.104509692	0.122780308
643.72	0.2337	0.104510325	0.129189675
643.76	0.2338	0.104510958	0.129289042
643.8	0.22545	0.104511591	0.120938409
643.84	0.21094	0.104512224	0.106427776
643.88	0.20356	0.104512857	0.099047143
643.92	0.18946	0.10451349	0.08494651
643.96	0.18004	0.104514123	0.075525877
644	0.17892	0.104514756	0.074405244
644.04	0.17907	0.104515389	0.074554611
644.08	0.1642	0.104516022	0.059683978
644.12	0.15361	0.104516655	0.049093345
644.16	0.15356	0.104517288	0.049042712
644.2	0.14689	0.104517921	0.042372079
644.24	0.14694	0.104518554	0.042421446
644.28	0.14516	0.104519187	0.040640813
644.32	0.14043	0.10451982	0.03591018
644.36	0.13299	0.104520453	0.028469547
644.4	0.12907	0.104521086	0.024548914
644.44	0.12454	0.104521719	0.020018281
644.48	0.12093	0.104522352	0.016407648
644.52	0.11701	0.104522984	0.012487016
644.56	0.11767	0.104523617	0.013146383
644.6	0.11782	0.10452425	0.01329575
644.64	0.11808	0.104524883	0.013555117
644.68	0.1168	0.104525516	0.012274484
644.72	0.11945	0.104526149	0.014923851
644.76	0.11864	0.104526782	0.014113218
644.8	0.11589	0.104527415	0.011362585
644.84	0.1168	0.104528048	0.012271952
644.88	0.11095	0.104528681	0.006421319
644.92	0.11115	0.104529314	0.006620686
644.96	0.11772	0.104529947	0.013190053
645	0.10443	0.10453058	-0.00010058
645.04	0.11675	0.104531213	0.012218787
645.08	0.10922	0.104531846	0.004688154
645.12	0.11696	0.104532479	0.012427521
645.16	0.11217	0.104533112	0.007636888
645.2	0.11008	0.104533745	0.005546255
645.24	0.11039	0.104534378	0.005855622
645.28	0.11599	0.104535011	0.011454989
645.32	0.11309	0.104535644	0.008554356
645.36	0.10922	0.104536277	0.004683723
645.4	0.11217	0.10453691	0.00763309
645.44	0.10443	0.104537543	-0.000107543
645.48	0.10733	0.104538176	0.002791824
645.52	0.10754	0.104538808	0.003001192
645.56	0.10927	0.104539441	0.004730559
645.6	0.11594	0.104540074	0.011399926
645.64	0.10744	0.104540707	0.002899293
645.68	0.11467	0.10454134	0.01012866
645.72	0.1084	0.104541973	0.003858027
645.76	0.10733	0.104542606	0.002787394
645.8	0.10733	0.104543239	0.002786761
645.84	0.11971	0.104543872	0.015166128
645.88	0.11085	0.104544505	0.006305495
645.92	0.11085	0.104545138	0.006304862
645.96	0.10657	0.104545771	0.002024229
646	0.11029	0.104546404	0.005743596
646.04	0.11416	0.104547037	0.009612963
646.08	0.10861	0.10454767	0.00406233
646.12	0.1083	0.104548303	0.003751697
646.16	0.11217	0.104548936	0.007621064
646.2	0.11492	0.104549569	0.010370431
646.24	0.11115	0.104550202	0.006599798
646.28	0.11237	0.104550835	0.007819165
646.32	0.10922	0.104551468	0.004668532
646.36	0.11502	0.104552101	0.010467899
646.4	0.11487	0.104552734	0.010317266
646.44	0.1167	0.104553367	0.012146633
646.48	0.11665	0.104554	0.012096
646.52	0.12067	0.104554632	0.016115368
646.56	0.12159	0.104555265	0.017034735
646.6	0.13279	0.104555898	0.028234102
646.64	0.13865	0.104556531	0.034093469
646.68	0.14623	0.104557164	0.041672836
646.72	0.14613	0.104557797	0.041572203
646.76	0.15097	0.10455843	0.04641157
646.8	0.14689	0.104559063	0.042330937
646.84	0.15565	0.104559696	0.051090304
646.88	0.16502	0.104560329	0.060459671
646.92	0.16889	0.104560962	0.064329038
646.96	0.19043	0.104561595	0.085868405
647	0.19037	0.104562228	0.085807772
647.04	0.20427	0.104562861	0.099707139
647.08	0.20254	0.104563494	0.097976506
647.12	0.23406	0.104564127	0.129495873
647.16	0.23543	0.10456476	0.13086524
647.2	0.25539	0.104565393	0.150824607
647.24	0.27708	0.104566026	0.172513974
647.28	0.27718	0.104566659	0.172613341
647.32	0.30452	0.104567292	0.199952708
647.36	0.30513	0.104567925	0.200562075
647.4	0.31654	0.104568558	0.211971442
647.44	0.33471	0.104569191	0.230140809
647.48	0.33548	0.104569824	0.230910176
647.52	0.33446	0.104570456	0.229889544
647.56	0.35442	0.104571089	0.249848911
647.6	0.35452	0.104571722	0.249948278
647.64	0.3536	0.104572355	0.249027645
647.68	0.34795	0.104572988	0.243377012
647.72	0.35447	0.104573621	0.249896379
647.76	0.34485	0.104574254	0.240275746
647.8	0.35732	0.104574887	0.252745113
647.84	0.33925	0.10457552	0.23467448
647.88	0.33925	0.104576153	0.234673847
647.92	0.32224	0.104576786	0.217663214
647.96	0.31751	0.104577419	0.212932581
648	0.31491	0.104578052	0.210331948
648.04	0.30513	0.104578685	0.200551315
648.08	0.29108	0.104579318	0.186500682
648.12	0.28003	0.104579951	0.175450049
648.16	0.27978	0.104580584	0.175199416
648.2	0.26761	0.104581217	0.163028783
648.24	0.24236	0.10458185	0.13777815
648.28	0.23477	0.104582483	0.130187517
648.32	0.20733	0.104583116	0.102746884
648.36	0.18661	0.104583749	0.082026251
648.4	0.17821	0.104584382	0.073625618
648.44	0.167	0.104585015	0.062414985
648.48	0.16695	0.104585648	0.062364352
648.52	0.15728	0.10458628	0.05269372
648.56	0.14684	0.104586913	0.042253087
648.6	0.13747	0.104587546	0.032882454
648.64	0.12536	0.104588179	0.020771821
648.68	0.12429	0.104588812	0.019701188
648.72	0.12332	0.104589445	0.018730555
648.76	0.12363	0.104590078	0.019039922
648.8	0.11288	0.104590711	0.008289289
648.84	0.11487	0.104591344	0.010278656
648.88	0.10845	0.104591977	0.003858023
648.92	0.10464	0.10459261	4.73899E-05
648.96	0.11217	0.104593243	0.007576757
649	0.11492	0.104593876	0.010326124
649.04	0.10015	0.104594509	-0.004444509
649.08	0.1	0.104595142	-0.004595142
649.12	0.11018	0.104595775	0.005584225
649.16	0.11298	0.104596408	0.008383592
649.2	0.10835	0.104597041	0.003752959
649.24	0.10555	0.104597674	0.000952326
649.28	0.11227	0.104598307	0.007671693
649.32	0.11115	0.10459894	0.00655106
649.36	0.1112	0.104599573	0.006600427
649.4	0.11421	0.104600206	0.009609794
649.44	0.11202	0.104600839	0.007419161
649.48	0.11227	0.104601472	0.007668528
649.52	0.10647	0.104602104	0.001867896
649.56	0.10733	0.104602737	0.002727263
649.6	0.114	0.10460337	0.00939663
649.64	0.11385	0.104604003	0.009245997
649.68	0.10932	0.104604636	0.004715364
649.72	0.11553	0.104605269	0.010924731
649.76	0.10464	0.104605902	3.40978E-05
649.8	0.10178	0.104606535	-0.002826535
649.84	0.11018	0.104607168	0.005572832
649.88	0.11212	0.104607801	0.007512199
649.92	0.11039	0.104608434	0.005781566
649.96	0.11029	0.104609067	0.005680933
650	0.1084	0.1046097	0.0037903
650.04	0.11029	0.104610333	0.005679667
650.08	0.1027	0.104610966	-0.001910966
650.12	0.11319	0.104611599	0.008578401
650.16	0.10285	0.104612232	-0.001762232
650.2	0.1085	0.104612865	0.003887135
650.24	0.1084	0.104613498	0.003786502
650.28	0.10265	0.104614131	-0.001964131
650.32	0.1084	0.104614764	0.003785236
650.36	0.10275	0.104615397	-0.001865397
650.4	0.11212	0.10461603	0.00750397
650.44	0.10637	0.104616663	0.001753337
650.48	0.10642	0.104617296	0.001802704
650.52	0.10657	0.104617928	0.001952072
650.56	0.11044	0.104618561	0.005821439
650.6	0.10896	0.104619194	0.004340806
650.64	0.10937	0.104619827	0.004750173
650.68	0.1055	0.10462046	0.00087954
650.72	0.1026	0.104621093	-0.002021093
650.76	0.10183	0.104621726	-0.002791726
650.8	0.10942	0.104622359	0.004797641
650.84	0.10922	0.104622992	0.004597008
650.88	0.11039	0.104623625	0.005766375
650.92	0.10754	0.104624258	0.002915742
650.96	0.10749	0.104624891	0.002865109
651	0.10474	0.104625524	0.000114476
651.04	0.10087	0.104626157	-0.003756157
651.08	0.10632	0.10462679	0.00169321
651.12	0.10626	0.104627423	0.001632577
651.16	0.10723	0.104628056	0.002601944
651.2	0.10581	0.104628689	0.001181311
651.24	0.10535	0.104629322	0.000720678
651.28	0.10301	0.104629955	-0.001619955
651.32	0.10183	0.104630588	-0.002800588
651.36	0.10637	0.104631221	0.001738779
651.4	0.10917	0.104631854	0.004538146
651.44	0.10927	0.104632487	0.004637513
651.48	0.10896	0.10463312	0.00432688
651.52	0.10616	0.104633752	0.001526248
651.56	0.10168	0.104634385	-0.002954385
651.6	0.10362	0.104635018	-0.001015018
651.64	0.1053	0.104635651	0.000664349
651.68	0.10387	0.104636284	-0.000766284
651.72	0.10346	0.104636917	-0.001176917
651.76	0.10392	0.10463755	-0.00071755
651.8	0.10769	0.104638183	0.003051817
651.84	0.1028	0.104638816	-0.001838816
651.88	0.10728	0.104639449	0.002640551
651.92	0.10932	0.104640082	0.004679918
651.96	0.1028	0.104640715	-0.001840715
652	0.1027	0.104641348	-0.001941348
652.04	0.11074	0.104641981	0.006098019
652.08	0.10632	0.104642614	0.001677386
652.12	0.10835	0.104643247	0.003706753
652.16	0.10275	0.10464388	-0.00189388
652.2	0.10382	0.104644513	-0.000824513
652.24	0.11115	0.104645146	0.006504854
652.28	0.10754	0.104645779	0.002894221
652.32	0.10759	0.104646412	0.002943588
652.36	0.10749	0.104647045	0.002842955
652.4	0.10744	0.104647678	0.002792322
652.44	0.10372	0.104648311	-0.000928311
652.48	0.11304	0.104648944	0.008391056
652.52	0.1112	0.104649576	0.006550424
652.56	0.10932	0.104650209	0.004669791
652.6	0.10922	0.104650842	0.004569158
652.64	0.10458	0.104651475	-7.14754E-05
652.68	0.10632	0.104652108	0.001667892
652.72	0.10458	0.104652741	-7.27413E-05
652.76	0.10514	0.104653374	0.000486626
652.8	0.10479	0.104654007	0.000135993
652.84	0.09797	0.10465464	-0.00668464
652.88	0.11288	0.104655273	0.008224727
652.92	0.11293	0.104655906	0.008274094
652.96	0.10932	0.104656539	0.004663461
653	0.10866	0.104657172	0.004002828
653.04	0.11309	0.104657805	0.008432195
653.08	0.11013	0.104658438	0.005471562
653.12	0.10311	0.104659071	-0.001549071
653.16	0.10825	0.104659704	0.003590296
653.2	0.1082	0.104660337	0.003539663
653.24	0.10825	0.10466097	0.00358903
653.28	0.10535	0.104661603	0.000688397
653.32	0.10759	0.104662236	0.002927764
653.36	0.10937	0.104662869	0.004707131
653.4	0.1053	0.104663502	0.000636498
653.44	0.10917	0.104664135	0.004505865
653.48	0.10927	0.104664768	0.004605232
653.52	0.10647	0.1046654	0.0018046
653.56	0.10357	0.104666033	-0.001096033
653.6	0.10932	0.104666666	0.004653334
653.64	0.10988	0.104667299	0.005212701
653.68	0.10545	0.104667932	0.000782068
653.72	0.10377	0.104668565	-0.000898565
653.76	0.1027	0.104669198	-0.001969198
653.8	0.1026	0.104669831	-0.002069831
653.84	0.11319	0.104670464	0.008519536
653.88	0.10642	0.104671097	0.001748903
653.92	0.10372	0.10467173	-0.00095173
653.96	0.10545	0.104672363	0.000777637
654	0.10856	0.104672996	0.003887004
654.04	0.10102	0.104673629	-0.003653629
654.08	0.10087	0.104674262	-0.003804262
654.12	0.10453	0.104674895	-0.000144895
654.16	0.11115	0.104675528	0.006474472
654.2	0.10744	0.104676161	0.002763839
654.24	0.11115	0.104676794	0.006473206
654.28	0.10525	0.104677427	0.000572573
654.32	0.11039	0.10467806	0.00571194
654.36	0.11029	0.104678693	0.005611307
654.4	0.10453	0.104679326	-0.000149326
654.44	0.10917	0.104679959	0.004490041
654.48	0.10626	0.104680592	0.001579408
654.52	0.10932	0.104681224	0.004638776
654.56	0.10214	0.104681857	-0.002541857
654.6	0.09985	0.10468249	-0.00483249
654.64	0.10927	0.104683123	0.004586877
654.68	0.10947	0.104683756	0.004786244
654.72	0.10265	0.104684389	-0.002034389
654.76	0.10535	0.104685022	0.000664978
654.8	0.10815	0.104685655	0.003464345
654.84	0.10464	0.104686288	-4.62882E-05
654.88	0.10453	0.104686921	-0.000156921
654.92	0.10183	0.104687554	-0.002857554
654.96	0.10178	0.104688187	-0.002908187
655	0.10071	0.10468882	-0.00397882
655.04	0.1055	0.104689453	0.000810547
655.08	0.10479	0.104690086	9.99141E-05
655.12	0.1081	0.104690719	0.003409281
655.16	0.10097	0.104691352	-0.003721352
655.2	0.10357	0.104691985	-0.001121985
655.24	0.10458	0.104692618	-0.000112618
655.28	0.10453	0.104693251	-0.000163251
655.32	0.10183	0.104693884	-0.002863884
655.36	0.1	0.104694517	-0.004694517
655.4	0.10927	0.10469515	0.00457485
655.44	0.10367	0.104695783	-0.001025783
655.48	0.10652	0.104696416	0.001823584
655.52	0.10688	0.104697048	0.002182952
655.56	0.10642	0.104697681	0.001722319
655.6	0.10464	0.104698314	-5.83144E-05
655.64	0.10382	0.104698947	-0.000878947
655.68	0.10912	0.10469958	0.00442042
655.72	0.10178	0.104700213	-0.002920213
655.76	0.10545	0.104700846	0.000749154
655.8	0.10754	0.104701479	0.002838521
655.84	0.10738	0.104702112	0.002677888
655.88	0.10392	0.104702745	-0.000782745
655.92	0.10082	0.104703378	-0.003883378
655.96	0.10535	0.104704011	0.000645989
656	0.11125	0.104704644	0.006545356
656.04	0.10189	0.104705277	-0.002815277
656.08	0.10764	0.10470591	0.00293409
656.12	0.10642	0.104706543	0.001713457
656.16	0.10642	0.104707176	0.001712824
656.2	0.10458	0.104707809	-0.000127809
656.24	0.10917	0.104708442	0.004461558
656.28	0.10173	0.104709075	-0.002979075
656.32	0.10173	0.104709708	-0.002979708
656.36	0.10194	0.104710341	-0.002770341
656.4	0.10764	0.104710974	0.002929026
656.44	0.10769	0.104711607	0.002978393
656.48	0.10438	0.10471224	-0.00033224
656.52	0.10021	0.104712872	-0.004502872
656.56	0.10647	0.104713505	0.001756495
656.6	0.1084	0.104714138	0.003685862
656.64	0.11039	0.104714771	0.005675229
656.68	0.11018	0.104715404	0.005464596
656.72	0.11039	0.104716037	0.005673963
656.76	0.09705	0.10471667	-0.00766667
656.8	0.10464	0.104717303	-7.73032E-05
656.84	0.1053	0.104717936	0.000582064
656.88	0.10458	0.104718569	-0.000138569
656.92	0.1083	0.104719202	0.003580798
656.96	0.10565	0.104719835	0.000930165
657	0.1001	0.104720468	-0.004620468
657.04	0.09995	0.104721101	-0.004771101
657.08	0.09532	0.104721734	-0.009401734
657.12	0.1111	0.104722367	0.006377633
657.16	0.10942	0.104723	0.004697
657.2	0.1028	0.104723633	-0.001923633
657.24	0.10738	0.104724266	0.002655734
657.28	0.09909	0.104724899	-0.005634899
657.32	0.09903	0.104725532	-0.005695532
657.36	0.10453	0.104726165	-0.000196165
657.4	0.1027	0.104726798	-0.002026798
657.44	0.10565	0.104727431	0.000922569
657.48	0.10932	0.104728064	0.004591936
657.52	0.10759	0.104728696	0.002861304
657.56	0.1083	0.104729329	0.003570671
657.6	0.10341	0.104729962	-0.001319962
657.64	0.10377	0.104730595	-0.000960595
657.68	0.10723	0.104731228	0.002498772
657.72	0.10738	0.104731861	0.002648139
657.76	0.10856	0.104732494	0.003827506
657.8	0.10168	0.104733127	-0.003053127
657.84	0.10545	0.10473376	0.00071624
657.88	0.10392	0.104734393	-0.000814393
657.92	0.10341	0.104735026	-0.001325026
657.96	0.10285	0.104735659	-0.001885659
658	0.10738	0.104736292	0.002643708
658.04	0.10469	0.104736925	-4.6925E-05
658.08	0.10912	0.104737558	0.004382442
658.12	0.11212	0.104738191	0.007381809
658.16	0.11304	0.104738824	0.008301176
658.2	0.11293	0.104739457	0.008190543
658.24	0.10738	0.10474009	0.00263991
658.28	0.10927	0.104740723	0.004529277
658.32	0.10652	0.104741356	0.001778644
658.36	0.11008	0.104741989	0.005338011
658.4	0.1054	0.104742622	0.000657378
658.44	0.11232	0.104743255	0.007576745
658.48	0.10372	0.104743888	-0.001023888
658.52	0.10372	0.10474452	-0.00102452
658.56	0.10377	0.104745153	-0.000975153
658.6	0.10922	0.104745786	0.004474214
658.64	0.10723	0.104746419	0.002483581
658.68	0.10107	0.104747052	-0.003677052
658.72	0.10362	0.104747685	-0.001127685
658.76	0.11024	0.104748318	0.005491682
658.8	0.11034	0.104748951	0.005591049
658.84	0.10738	0.104749584	0.002630416
658.88	0.10448	0.104750217	-0.000270217
658.92	0.10066	0.10475085	-0.00409085
658.96	0.1055	0.104751483	0.000748517
659	0.10097	0.104752116	-0.003782116
659.04	0.11217	0.104752749	0.007417251
659.08	0.11212	0.104753382	0.007366618
659.12	0.10453	0.104754015	-0.000224015
659.16	0.11105	0.104754648	0.006295352
659.2	0.11034	0.104755281	0.005584719
659.24	0.11115	0.104755914	0.006394086
659.28	0.1084	0.104756547	0.003643453
659.32	0.11782	0.10475718	0.01306282
659.36	0.11777	0.104757813	0.013012187
659.4	0.11803	0.104758446	0.013271554
659.44	0.12083	0.104759079	0.016070921
659.48	0.12062	0.104759712	0.015860288
659.52	0.12169	0.104760344	0.016929656
659.56	0.12643	0.104760977	0.021669023
659.6	0.13284	0.10476161	0.02807839
659.64	0.14262	0.104762243	0.037857757
659.68	0.14216	0.104762876	0.037397124
659.72	0.15097	0.104763509	0.046206491
659.76	0.15545	0.104764142	0.050685858
659.8	0.16125	0.104764775	0.056485225
659.84	0.17505	0.104765408	0.070284592
659.88	0.18396	0.104766041	0.079193959
659.92	0.18594	0.104766674	0.081173326
659.96	0.19771	0.104767307	0.092942693
660	0.19781	0.10476794	0.09304206
660.04	0.21512	0.104768573	0.110351427
660.08	0.21996	0.104769206	0.115190794
660.12	0.24332	0.104769839	0.138550161
660.16	0.25677	0.104770472	0.151999528
660.2	0.28288	0.104771105	0.178108895
660.24	0.30081	0.104771738	0.196038262
660.28	0.30081	0.104772371	0.196037629
660.32	0.30432	0.104773004	0.199546996
660.36	0.31389	0.104773637	0.209116363
660.4	0.32728	0.10477427	0.22250573
660.44	0.33263	0.104774903	0.227855097
660.48	0.33538	0.104775536	0.230604464
660.52	0.34225	0.104776168	0.237473832
660.56	0.3422	0.104776801	0.237423199
660.6	0.33268	0.104777434	0.227902566
660.64	0.3338	0.104778067	0.229021933
660.68	0.32356	0.1047787	0.2187813
660.72	0.32815	0.104779333	0.223370667
660.76	0.32418	0.104779966	0.219400034
660.8	0.3197	0.104780599	0.214919401
660.84	0.31598	0.104781232	0.211198768
660.88	0.31583	0.104781865	0.211048135
660.92	0.30427	0.104782498	0.199487502
660.96	0.30427	0.104783131	0.199486869
661	0.28075	0.104783764	0.175966236
661.04	0.2585	0.104784397	0.153715603
661.08	0.26506	0.10478503	0.16027497
661.12	0.23772	0.104785663	0.132934337
661.16	0.23742	0.104786296	0.132633704
661.2	0.22316	0.104786929	0.118373071
661.24	0.20906	0.104787562	0.104272438
661.28	0.18773	0.104788195	0.082941805
661.32	0.1752	0.104788828	0.070411172
661.36	0.16222	0.104789461	0.057430539
661.4	0.15636	0.104790094	0.051569906
661.44	0.13742	0.104790727	0.032629273
661.48	0.13747	0.10479136	0.03267864
661.52	0.12923	0.104791992	0.024438008
661.56	0.12755	0.104792625	0.022757375
661.6	0.1195	0.104793258	0.014706742
661.64	0.12373	0.104793891	0.018936109
661.68	0.11752	0.104794524	0.012725476
661.72	0.11696	0.104795157	0.012164843
661.76	0.11691	0.10479579	0.01211421
661.8	0.114	0.104796423	0.009203577
661.84	0.10728	0.104797056	0.002482944
661.88	0.11385	0.104797689	0.009052311
661.92	0.10922	0.104798322	0.004421678
661.96	0.10937	0.104798955	0.004571045
662	0.11024	0.104799588	0.005440412
662.04	0.10993	0.104800221	0.005129779
662.08	0.1139	0.104800854	0.009099146
662.12	0.10443	0.104801487	-0.000371487
662.16	0.10835	0.10480212	0.00354788
662.2	0.10285	0.104802753	-0.001952753
662.24	0.10932	0.104803386	0.004516614
662.28	0.1112	0.104804019	0.006395981
662.32	0.11487	0.104804652	0.010065348
662.36	0.11502	0.104805285	0.010214715
662.4	0.10922	0.104805918	0.004414082
662.44	0.11283	0.104806551	0.008023449
662.48	0.1113	0.104807184	0.006492816
662.52	0.10647	0.104807816	0.001662184
662.56	0.11197	0.104808449	0.007161551
662.6	0.10927	0.104809082	0.004460918
662.64	0.10922	0.104809715	0.004410285
662.68	0.10906	0.104810348	0.004249652
662.72	0.11217	0.104810981	0.007359019
662.76	0.10621	0.104811614	0.001398386
662.8	0.11426	0.104812247	0.009447753
662.84	0.108	0.10481288	0.00318712
662.88	0.11405	0.104813513	0.009236487
662.92	0.11405	0.104814146	0.009235854
662.96	0.11395	0.104814779	0.009135221
663	0.11304	0.104815412	0.008224588
663.04	0.11512	0.104816045	0.010303955
663.08	0.10912	0.104816678	0.004303322
663.12	0.10637	0.104817311	0.001552689
663.16	0.11222	0.104817944	0.007402056
663.2	0.11507	0.104818577	0.010251423
663.24	0.11492	0.10481921	0.01010079
663.28	0.11614	0.104819843	0.011320157
663.32	0.11782	0.104820476	0.012999524
663.36	0.12154	0.104821109	0.016718891
663.4	0.1168	0.104821742	0.011978258
663.44	0.11573	0.104822375	0.010907625
663.48	0.11782	0.104823008	0.012996992
663.52	0.11752	0.10482364	0.01269636
663.56	0.1196	0.104824273	0.014775727
663.6	0.12902	0.104824906	0.024195094
663.64	0.12551	0.104825539	0.020684461
663.68	0.12551	0.104826172	0.020683828
663.72	0.12933	0.104826805	0.024503195
663.76	0.12943	0.104827438	0.024602562
663.8	0.12312	0.104828071	0.018291929
663.84	0.12358	0.104828704	0.018751296
663.88	0.12653	0.104829337	0.021700663
663.92	0.12729	0.10482997	0.02246003
663.96	0.13361	0.104830603	0.028779397
664	0.13859	0.104831236	0.033758764
664.04	0.13488	0.104831869	0.030048131
664.08	0.14017	0.104832502	0.035337498
664.12	0.14017	0.104833135	0.035336865
664.16	0.13753	0.104833768	0.032696232
664.2	0.13763	0.104834401	0.032795599
664.24	0.14246	0.104835034	0.037624966
664.28	0.14241	0.104835667	0.037574333
664.32	0.13844	0.1048363	0.0336037
664.36	0.13875	0.104836933	0.033913067
664.4	0.13844	0.104837566	0.033602434
664.44	0.14216	0.104838199	0.037321801
664.48	0.13824	0.104838832	0.033401168
664.52	0.14038	0.104839464	0.035540536
664.56	0.14099	0.104840097	0.036149903
664.6	0.13946	0.10484073	0.03461927
664.64	0.13966	0.104841363	0.034818637
664.68	0.14017	0.104841996	0.035328004
664.72	0.14043	0.104842629	0.035587371
664.76	0.14832	0.104843262	0.043476738
664.8	0.14226	0.104843895	0.037416105
664.84	0.14007	0.104844528	0.035225472
664.88	0.14689	0.104845161	0.042044839
664.92	0.13946	0.104845794	0.034614206
664.96	0.14593	0.104846427	0.041083573
665	0.14598	0.10484706	0.04113294
665.04	0.14913	0.104847693	0.044282307
665.08	0.14338	0.104848326	0.038531674
665.12	0.1332	0.104848959	0.028351041
665.16	0.14246	0.104849592	0.037610408
665.2	0.13671	0.104850225	0.031859775
665.24	0.13671	0.104850858	0.031859142
665.28	0.13691	0.104851491	0.032058509
665.32	0.13315	0.104852124	0.028297876
665.36	0.13951	0.104852757	0.034657243
665.4	0.1361	0.10485339	0.03124661
665.44	0.13564	0.104854023	0.030785977
665.48	0.12933	0.104854656	0.024475344
665.52	0.13192	0.104855288	0.027064712
665.56	0.13671	0.104855921	0.031854079
665.6	0.13656	0.104856554	0.031703446
665.64	0.12352	0.104857187	0.018662813
665.68	0.13111	0.10485782	0.02625218
665.72	0.13661	0.104858453	0.031751547
665.76	0.12154	0.104859086	0.016680914
665.8	0.12057	0.104859719	0.015710281
665.84	0.12831	0.104860352	0.023449648
665.88	0.12811	0.104860985	0.023249015
665.92	0.12266	0.104861618	0.017798382
665.96	0.11431	0.104862251	0.009447749
666	0.11777	0.104862884	0.012907116
666.04	0.11497	0.104863517	0.010106483
666.08	0.11981	0.10486415	0.01494585
666.12	0.11207	0.104864783	0.007205217
666.16	0.11869	0.104865416	0.013824584
666.2	0.11869	0.104866049	0.013823951
666.24	0.11202	0.104866682	0.007153318
666.28	0.11105	0.104867315	0.006182685
666.32	0.11675	0.104867948	0.011882052
666.36	0.11507	0.104868581	0.010201419
666.4	0.10764	0.104869214	0.002770786
666.44	0.11609	0.104869847	0.011220153
666.48	0.11594	0.10487048	0.01106952
666.52	0.1084	0.104871112	0.003528888
666.56	0.10917	0.104871745	0.004298255
666.6	0.10698	0.104872378	0.002107622
666.64	0.11293	0.104873011	0.008056989
666.68	0.10896	0.104873644	0.004086356
666.72	0.11283	0.104874277	0.007955723
666.76	0.11319	0.10487491	0.00831509
666.8	0.10458	0.104875543	-0.000295543
666.84	0.10754	0.104876176	0.002663824
666.88	0.10917	0.104876809	0.004293191
666.92	0.10891	0.104877442	0.004032558
666.96	0.10957	0.104878075	0.004691925
667	0.10896	0.104878708	0.004081292
667.04	0.10183	0.104879341	-0.003049341
667.08	0.10204	0.104879974	-0.002839974
667.12	0.11024	0.104880607	0.005359393
667.16	0.10845	0.10488124	0.00356876
667.2	0.10464	0.104881873	-0.000241873
667.24	0.10189	0.104882506	-0.002992506
667.28	0.11207	0.104883139	0.007186861
667.32	0.10738	0.104883772	0.002496228
667.36	0.10749	0.104884405	0.002605595
667.4	0.11044	0.104885038	0.005554962
667.44	0.10652	0.104885671	0.001634329
667.48	0.11314	0.104886304	0.008253696
667.52	0.11013	0.104886936	0.005243064
667.56	0.10382	0.104887569	-0.001067569
667.6	0.11018	0.104888202	0.005291798
667.64	0.10632	0.104888835	0.001431165
667.68	0.10647	0.104889468	0.001580532
667.72	0.10458	0.104890101	-0.000310101
667.76	0.11502	0.104890734	0.010129266
667.8	0.11034	0.104891367	0.005448633
667.84	0.1084	0.104892	0.003508
667.88	0.10738	0.104892633	0.002487367
667.92	0.1112	0.104893266	0.006306734
667.96	0.11115	0.104893899	0.006256101
668	0.10382	0.104894532	-0.001074532
668.04	0.11018	0.104895165	0.005284835
668.08	0.1026	0.104895798	-0.002295798
668.12	0.10754	0.104896431	0.002643569
668.16	0.10377	0.104897064	-0.001127064
668.2	0.10637	0.104897697	0.001472303
668.24	0.10621	0.10489833	0.00131167
668.28	0.10173	0.104898963	-0.003168963
668.32	0.11044	0.104899596	0.005540404
668.36	0.10265	0.104900229	-0.002250229
668.4	0.10555	0.104900862	0.000649138
668.44	0.10443	0.104901495	-0.000471495
668.48	0.10632	0.104902128	0.001417872
668.52	0.10754	0.10490276	0.00263724
668.56	0.10733	0.104903393	0.002426607
668.6	0.10535	0.104904026	0.000445974
668.64	0.10183	0.104904659	-0.003074659
668.68	0.10535	0.104905292	0.000444708
668.72	0.10733	0.104905925	0.002424075
668.76	0.10255	0.104906558	-0.002356558
668.8	0.10581	0.104907191	0.000902809
668.84	0.10545	0.104907824	0.000542176
668.88	0.10744	0.104908457	0.002531543
668.92	0.10474	0.10490909	-0.00016909
668.96	0.10642	0.104909723	0.001510277
669	0.10163	0.104910356	-0.003280356
669.04	0.10362	0.104910989	-0.001290989
669.08	0.10728	0.104911622	0.002368378
669.12	0.10733	0.104912255	0.002417745
669.16	0.10805	0.104912888	0.003137112
669.2	0.10377	0.104913521	-0.001143521
669.24	0.10168	0.104914154	-0.003234154
669.28	0.10265	0.104914787	-0.002264787
669.32	0.10458	0.10491542	-0.00033542
669.36	0.1001	0.104916053	-0.004816053
669.4	0.10015	0.104916686	-0.004766686
669.44	0.1001	0.104917319	-0.004817319
669.48	0.10178	0.104917952	-0.003137952
669.52	0.10759	0.104918584	0.002671416
669.56	0.10448	0.104919217	-0.000439217
669.6	0.10708	0.10491985	0.00216015
669.64	0.09552	0.104920483	-0.009400483
669.68	0.10087	0.104921116	-0.004051116
669.72	0.10056	0.104921749	-0.004361749
669.76	0.10545	0.104922382	0.000527618
669.8	0.10728	0.104923015	0.002356985
669.84	0.10448	0.104923648	-0.000443648
669.88	0.10555	0.104924281	0.000625719
669.92	0.10382	0.104924914	-0.001104914
669.96	0.10392	0.104925547	-0.001005547
670	0.10453	0.10492618	-0.00039618
670.04	0.10474	0.104926813	-0.000186813
670.08	0.1082	0.104927446	0.003272554
670.12	0.10611	0.104928079	0.001181921
670.16	0.10621	0.104928712	0.001281288
670.2	0.1082	0.104929345	0.003270655
670.24	0.10453	0.104929978	-0.000399978
670.28	0.10525	0.104930611	0.000319389
670.32	0.1056	0.104931244	0.000668756
670.36	0.10372	0.104931877	-0.001211877
670.4	0.10021	0.10493251	-0.00472251
670.44	0.10178	0.104933143	-0.003153143
670.48	0.11237	0.104933776	0.007436224
670.52	0.10637	0.104934408	0.001435592
670.56	0.10367	0.104935041	-0.001265041
670.6	0.10362	0.104935674	-0.001315674
670.64	0.1027	0.104936307	-0.002236307
670.68	0.10367	0.10493694	-0.00126694
670.72	0.10545	0.104937573	0.000512427
670.76	0.10657	0.104938206	0.001631794
670.8	0.11222	0.104938839	0.007281161
670.84	0.10738	0.104939472	0.002440528
670.88	0.10845	0.104940105	0.003509895
670.92	0.10835	0.104940738	0.003409262
670.96	0.10912	0.104941371	0.004178629
671	0.10565	0.104942004	0.000707996
671.04	0.10372	0.104942637	-0.001222637
671.08	0.10672	0.10494327	0.00177673
671.12	0.10769	0.104943903	0.002746097
671.16	0.10265	0.104944536	-0.002294536
671.2	0.1027	0.104945169	-0.002245169
671.24	0.10723	0.104945802	0.002284198
671.28	0.10148	0.104946435	-0.003466435
671.32	0.10265	0.104947068	-0.002297068
671.36	0.111	0.104947701	0.006052299
671.4	0.10362	0.104948334	-0.001328334
671.44	0.10917	0.104948967	0.004221033
671.48	0.10932	0.1049496	0.0043704
671.52	0.1028	0.104950232	-0.002150232
671.56	0.10408	0.104950865	-0.000870865
671.6	0.1025	0.104951498	-0.002451498
671.64	0.10845	0.104952131	0.003497869
671.68	0.1027	0.104952764	-0.002252764
671.72	0.10565	0.104953397	0.000696603
671.76	0.10265	0.10495403	-0.00230403
671.8	0.1025	0.104954663	-0.002454663
671.84	0.10642	0.104955296	0.001464704
671.88	0.10754	0.104955929	0.002584071
671.92	0.10097	0.104956562	-0.003986562
671.96	0.11044	0.104957195	0.005482805
672	0.10408	0.104957828	-0.000877828
672.04	0.10917	0.104958461	0.004211539
672.08	0.10901	0.104959094	0.004050906
672.12	0.10336	0.104959727	-0.001599727
672.16	0.10352	0.10496036	-0.00144036
672.2	0.10642	0.104960993	0.001459007
672.24	0.09791	0.104961626	-0.007051626
672.28	0.10565	0.104962259	0.000687741
672.32	0.10922	0.104962892	0.004257108
672.36	0.10346	0.104963525	-0.001503525
672.4	0.10372	0.104964158	-0.001244158
672.44	0.10942	0.104964791	0.004455209
672.48	0.10092	0.104965424	-0.004045424
672.52	0.1056	0.104966056	0.000633944
672.56	0.10357	0.104966689	-0.001396689
672.6	0.1052	0.104967322	0.000232678
672.64	0.11288	0.104967955	0.007912045
672.68	0.11293	0.104968588	0.007961412
672.72	0.1029	0.104969221	-0.002069221
672.76	0.10621	0.104969854	0.001240146
672.8	0.10285	0.104970487	-0.002120487
672.84	0.10647	0.10497112	0.00149888
672.88	0.09909	0.104971753	-0.005881753
672.92	0.10667	0.104972386	0.001697614
672.96	0.10642	0.104973019	0.001446981
673	0.09985	0.104973652	-0.005123652
673.04	0.11176	0.104974285	0.006785715
673.08	0.1054	0.104974918	0.000425082
673.12	0.11044	0.104975551	0.005464449
673.16	0.10856	0.104976184	0.003583816
673.2	0.10362	0.104976817	-0.001356817
673.24	0.10555	0.10497745	0.00057255
673.28	0.1053	0.104978083	0.000321917
673.32	0.10535	0.104978716	0.000371284
673.36	0.11105	0.104979349	0.006070651
673.4	0.10713	0.104979982	0.002150018
673.44	0.1057	0.104980615	0.000719385
673.48	0.10397	0.104981248	-0.001011248
673.52	0.10647	0.10498188	0.00148812
673.56	0.10637	0.104982513	0.001387487
673.6	0.10005	0.104983146	-0.004933146
673.64	0.10285	0.104983779	-0.002133779
673.68	0.10458	0.104984412	-0.000404412
673.72	0.10341	0.104985045	-0.001575045
673.76	0.10173	0.104985678	-0.003255678
673.8	0.09797	0.104986311	-0.007016311
673.84	0.10606	0.104986944	0.001073056
673.88	0.10642	0.104987577	0.001432423
673.92	0.10637	0.10498821	0.00138179
673.96	0.10392	0.104988843	-0.001068843
674	0.10754	0.104989476	0.002550524
674.04	0.10372	0.104990109	-0.001270109
674.08	0.10382	0.104990742	-0.001170742
674.12	0.09995	0.104991375	-0.005041375
674.16	0.10005	0.104992008	-0.004942008
674.2	0.10443	0.104992641	-0.000562641
674.24	0.1027	0.104993274	-0.002293274
674.28	0.10647	0.104993907	0.001476093
674.32	0.10749	0.10499454	0.00249546
674.36	0.1055	0.104995173	0.000504827
674.4	0.11003	0.104995806	0.005034194
674.44	0.11044	0.104996439	0.005443561
674.48	0.11136	0.104997072	0.006362928
674.52	0.09995	0.104997704	-0.005047704
674.56	0.10382	0.104998337	-0.001178337
674.6	0.10677	0.10499897	0.00177103
674.64	0.10642	0.104999603	0.001420397
674.68	0.10932	0.105000236	0.004319764
674.72	0.10357	0.105000869	-0.001430869
674.76	0.10397	0.105001502	-0.001031502
674.8	0.10255	0.105002135	-0.002452135
674.84	0.1026	0.105002768	-0.002402768
674.88	0.11202	0.105003401	0.007016599
674.92	0.09822	0.105004034	-0.006784034
674.96	0.10545	0.105004667	0.000445333
675	0.10576	0.1050053	0.0007547
675.04	0.10565	0.105005933	0.000644067
675.08	0.10209	0.105006566	-0.002916566
675.12	0.10632	0.105007199	0.001312801
675.16	0.10194	0.105007832	-0.003067832
675.2	0.10377	0.105008465	-0.001238465
675.24	0.10183	0.105009098	-0.003179098
675.28	0.10464	0.105009731	-0.000369731
675.32	0.10438	0.105010364	-0.000630364
675.36	0.10443	0.105010997	-0.000580997
675.4	0.10438	0.10501163	-0.00063163
675.44	0.10474	0.105012263	-0.000272263
675.48	0.10749	0.105012896	0.002477104
675.52	0.1027	0.105013528	-0.002313528
675.56	0.10097	0.105014161	-0.004044161
675.6	0.10087	0.105014794	-0.004144794
675.64	0.10087	0.105015427	-0.004145427
675.68	0.10199	0.10501606	-0.00302606
675.72	0.10458	0.105016693	-0.000436693
675.76	0.10744	0.105017326	0.002422674
675.8	0.1056	0.105017959	0.000582041
675.84	0.10733	0.105018592	0.002311408
675.88	0.10637	0.105019225	0.001350775
675.92	0.10637	0.105019858	0.001350142
675.96	0.10097	0.105020491	-0.004050491
676	0.1028	0.105021124	-0.002221124
676.04	0.11115	0.105021757	0.006128243
676.08	0.10448	0.10502239	-0.00054239
676.12	0.10764	0.105023023	0.002616977
676.16	0.10168	0.105023656	-0.003343656
676.2	0.10616	0.105024289	0.001135711
676.24	0.10657	0.105024922	0.001545078
676.28	0.10005	0.105025555	-0.004975555
676.32	0.1028	0.105026188	-0.002226188
676.36	0.1001	0.105026821	-0.004926821
676.4	0.10453	0.105027454	-0.000497454
676.44	0.09791	0.105028087	-0.007118087
676.48	0.10749	0.10502872	0.00246128
676.52	0.10738	0.105029352	0.002350648
676.56	0.10667	0.105029985	0.001640015
676.6	0.10443	0.105030618	-0.000600618
676.64	0.10932	0.105031251	0.004288749
676.68	0.10835	0.105031884	0.003318116
676.72	0.1028	0.105032517	-0.002232517
676.76	0.10453	0.10503315	-0.00050315
676.8	0.10448	0.105033783	-0.000553783
676.84	0.1052	0.105034416	0.000165584
676.88	0.11039	0.105035049	0.005354951
676.92	0.10525	0.105035682	0.000214318
676.96	0.1083	0.105036315	0.003263685
677	0.10362	0.105036948	-0.001416948
677.04	0.10382	0.105037581	-0.001217581
677.08	0.09822	0.105038214	-0.006818214
677.12	0.09822	0.105038847	-0.006818847
677.16	0.10367	0.10503948	-0.00136948
677.2	0.10189	0.105040113	-0.003150113
677.24	0.10474	0.105040746	-0.000300746
677.28	0.10377	0.105041379	-0.001271379
677.32	0.1027	0.105042012	-0.002342012
677.36	0.10657	0.105042645	0.001527355
677.4	0.10642	0.105043278	0.001376722
677.44	0.10173	0.105043911	-0.003313911
677.48	0.09898	0.105044544	-0.006064544
677.52	0.1	0.105045176	-0.005045176
677.56	0.09791	0.105045809	-0.007135809
677.6	0.10479	0.105046442	-0.000256442
677.64	0.10021	0.105047075	-0.004837075
677.68	0.10005	0.105047708	-0.004997708
677.72	0.111	0.105048341	0.005951659
677.76	0.10031	0.105048974	-0.004738974
677.8	0.10652	0.105049607	0.001470393
677.84	0.10545	0.10505024	0.00039976
677.88	0.1026	0.105050873	-0.002450873
677.92	0.10835	0.105051506	0.003298494
677.96	0.10448	0.105052139	-0.000572139
678	0.10443	0.105052772	-0.000622772
678.04	0.0969	0.105053405	-0.008153405
678.08	0.10219	0.105054038	-0.002864038
678.12	0.1053	0.105054671	0.000245329
678.16	0.10102	0.105055304	-0.004035304
678.2	0.10932	0.105055937	0.004264063
678.24	0.10535	0.10505657	0.00029343
678.28	0.10545	0.105057203	0.000392797
678.32	0.10632	0.105057836	0.001262164
678.36	0.10392	0.105058469	-0.001138469
678.4	0.10555	0.105059102	0.000490898
678.44	0.10647	0.105059735	0.001410265
678.48	0.11008	0.105060368	0.005019632
678.52	0.10458	0.105061	-0.000481
678.56	0.1084	0.105061633	0.003338367
678.6	0.10871	0.105062266	0.003647734
678.64	0.10357	0.105062899	-0.001492899
678.68	0.10555	0.105063532	0.000486468
678.72	0.1001	0.105064165	-0.004964165
678.76	0.1001	0.105064798	-0.004964798
678.8	0.1028	0.105065431	-0.002265431
678.84	0.10458	0.105066064	-0.000486064
678.88	0.10448	0.105066697	-0.000586697
678.92	0.108	0.10506733	0.00293267
678.96	0.10275	0.105067963	-0.002317963
679	0.11039	0.105068596	0.005321404
679.04	0.10733	0.105069229	0.002260771
679.08	0.1027	0.105069862	-0.002369862
679.12	0.10535	0.105070495	0.000279505
679.16	0.1055	0.105071128	0.000428872
679.2	0.10015	0.105071761	-0.004921761
679.24	0.10464	0.105072394	-0.000432394
679.28	0.09929	0.105073027	-0.005783027
679.32	0.10413	0.10507366	-0.00094366
679.36	0.10443	0.105074293	-0.000644293
679.4	0.10438	0.105074926	-0.000694926
679.44	0.09791	0.105075559	-0.007165559
679.48	0.09802	0.105076192	-0.007056192
679.52	0.1082	0.105076824	0.003123176
679.56	0.10346	0.105077457	-0.001617457
679.6	0.10458	0.10507809	-0.00049809
679.64	0.10555	0.105078723	0.000471277
679.68	0.10397	0.105079356	-0.001109356
679.72	0.10652	0.105079989	0.001440011
679.76	0.10647	0.105080622	0.001389378
679.8	0.10194	0.105081255	-0.003141255
679.84	0.10754	0.105081888	0.002458112
679.88	0.10469	0.105082521	-0.000392521
679.92	0.1055	0.105083154	0.000416846
679.96	0.10937	0.105083787	0.004286213
680	0.09975	0.10508442	-0.00533442
680.04	0.10005	0.105085053	-0.005035053
680.08	0.11298	0.105085686	0.007894314
680.12	0.10545	0.105086319	0.000363681
680.16	0.09903	0.105086952	-0.006056952
680.2	0.10922	0.105087585	0.004132415
680.24	0.1001	0.105088218	-0.004988218
680.28	0.11044	0.105088851	0.005351149
680.32	0.10097	0.105089484	-0.004119484
680.36	0.10087	0.105090117	-0.004220117
680.4	0.10815	0.10509075	0.00305925
680.44	0.10626	0.105091383	0.001168617
680.48	0.09618	0.105092016	-0.008912016
680.52	0.10464	0.105092648	-0.000452648
680.56	0.1056	0.105093281	0.000506719
680.6	0.10764	0.105093914	0.002546086
680.64	0.10733	0.105094547	0.002235453
680.68	0.10199	0.10509518	-0.00310518
680.72	0.1055	0.105095813	0.000404187
680.76	0.10489	0.105096446	-0.000206446
680.8	0.09893	0.105097079	-0.006167079
680.84	0.10295	0.105097712	-0.002147712
680.88	0.10183	0.105098345	-0.003268345
680.92	0.10367	0.105098978	-0.001428978
680.96	0.10352	0.105099611	-0.001579611
681	0.10555	0.105100244	0.000449756
681.04	0.10479	0.105100877	-0.000310877
681.08	0.10194	0.10510151	-0.00316151
681.12	0.10367	0.105102143	-0.001432143
681.16	0.10453	0.105102776	-0.000572776
681.2	0.10382	0.105103409	-0.001283409
681.24	0.10372	0.105104042	-0.001384042
681.28	0.10173	0.105104675	-0.003374675
681.32	0.10464	0.105105308	-0.000465308
681.36	0.0998	0.105105941	-0.005305941
681.4	0.0999	0.105106574	-0.005206574
681.44	0.10367	0.105107207	-0.001437207
681.48	0.10362	0.10510784	-0.00148784
681.52	0.10377	0.105108472	-0.001338472
681.56	0.10937	0.105109105	0.004260895
681.6	0.10647	0.105109738	0.001360262
681.64	0.1027	0.105110371	-0.002410371
681.68	0.10285	0.105111004	-0.002261004
681.72	0.1057	0.105111637	0.000588363
681.76	0.10912	0.10511227	0.00400773
681.8	0.10367	0.105112903	-0.001442903
681.84	0.10357	0.105113536	-0.001543536
681.88	0.11029	0.105114169	0.005175831
681.92	0.1001	0.105114802	-0.005014802
681.96	0.10835	0.105115435	0.003234565
682	0.10759	0.105116068	0.002473932
682.04	0.10733	0.105116701	0.002213299
682.08	0.10555	0.105117334	0.000432666
682.12	0.1055	0.105117967	0.000382033
682.16	0.10367	0.1051186	-0.0014486
682.2	0.10744	0.105119233	0.002320767
682.24	0.09827	0.105119866	-0.006849866
682.28	0.10469	0.105120499	-0.000430499
682.32	0.10469	0.105121132	-0.000431132
682.36	0.10265	0.105121765	-0.002471765
682.4	0.1052	0.105122398	7.76024E-05
682.44	0.10565	0.105123031	0.000526969
682.48	0.10555	0.105123664	0.000426336
682.52	0.1056	0.105124296	0.000475704
682.56	0.10754	0.105124929	0.002415071
682.6	0.09985	0.105125562	-0.005275562
682.64	0.11095	0.105126195	0.005823805
682.68	0.10458	0.105126828	-0.000546828
682.72	0.10443	0.105127461	-0.000697461
682.76	0.10474	0.105128094	-0.000388094
682.8	0.10458	0.105128727	-0.000548727
682.84	0.10189	0.10512936	-0.00323936
682.88	0.1054	0.105129993	0.000270007
682.92	0.10275	0.105130626	-0.002380626
682.96	0.10377	0.105131259	-0.001361259
683	0.10341	0.105131892	-0.001721892
683.04	0.0998	0.105132525	-0.005332525
683.08	0.10927	0.105133158	0.004136842
683.12	0.10469	0.105133791	-0.000443791
683.16	0.10346	0.105134424	-0.001674424
683.2	0.10545	0.105135057	0.000314943
683.24	0.10489	0.10513569	-0.00024569
683.28	0.10494	0.105136323	-0.000196323
683.32	0.10458	0.105136956	-0.000556956
683.36	0.11018	0.105137589	0.005042411
683.4	0.1029	0.105138222	-0.002238222
683.44	0.10464	0.105138855	-0.000498855
683.48	0.10749	0.105139488	0.002350512
683.52	0.10474	0.10514012	-0.00040012
683.56	0.10265	0.105140753	-0.002490753
683.6	0.1028	0.105141386	-0.002341386
683.64	0.09878	0.105142019	-0.006362019
683.68	0.10082	0.105142652	-0.004322652
683.72	0.111	0.105143285	0.005856715
683.76	0.10382	0.105143918	-0.001323918
683.8	0.10362	0.105144551	-0.001524551
683.84	0.10204	0.105145184	-0.003105184
683.88	0.10204	0.105145817	-0.003105817
683.92	0.11029	0.10514645	0.00514355
683.96	0.10912	0.105147083	0.003972917
684	0.10718	0.105147716	0.002032284
684.04	0.09888	0.105148349	-0.006268349
684.08	0.1084	0.105148982	0.003251018
684.12	0.1084	0.105149615	0.003250385
684.16	0.11212	0.105150248	0.006969752
684.2	0.11192	0.105150881	0.006769119
684.24	0.0998	0.105151514	-0.005351514
684.28	0.10957	0.105152147	0.004417853
684.32	0.10744	0.10515278	0.00228722
684.36	0.10779	0.105153413	0.002636587
684.4	0.1	0.105154046	-0.005154046
684.44	0.10845	0.105154679	0.003295321
684.48	0.10835	0.105155312	0.003194688
684.52	0.1083	0.105155944	0.003144056
684.56	0.1054	0.105156577	0.000243423
684.6	0.10998	0.10515721	0.00482279
684.64	0.10942	0.105157843	0.004262157
684.68	0.1083	0.105158476	0.003141524
684.72	0.10927	0.105159109	0.004110891
684.76	0.1084	0.105159742	0.003240258
684.8	0.10825	0.105160375	0.003089625
684.84	0.10464	0.105161008	-0.000521008
684.88	0.11125	0.105161641	0.006088359
684.92	0.1113	0.105162274	0.006137726
684.96	0.11197	0.105162907	0.006807093
685	0.11472	0.10516354	0.00955646
685.04	0.111	0.105164173	0.005835827
685.08	0.11136	0.105164806	0.006195194
685.12	0.11879	0.105165439	0.013624561
685.16	0.11207	0.105166072	0.006903928
685.2	0.11767	0.105166705	0.012503295
685.24	0.12169	0.105167338	0.016522662
685.28	0.11685	0.105167971	0.011682029
685.32	0.11884	0.105168604	0.013671396
685.36	0.11899	0.105169237	0.013820763
685.4	0.11202	0.10516987	0.00685013
685.44	0.11691	0.105170503	0.011739497
685.48	0.11696	0.105171136	0.011788864
685.52	0.11879	0.105171768	0.013618232
685.56	0.11268	0.105172401	0.007507599
685.6	0.11293	0.105173034	0.007756966
685.64	0.11288	0.105173667	0.007706333
685.68	0.11319	0.1051743	0.0080157
685.72	0.11512	0.105174933	0.009945067
685.76	0.11217	0.105175566	0.006994434
685.8	0.11711	0.105176199	0.011933801
685.84	0.10845	0.105176832	0.003273168
685.88	0.11507	0.105177465	0.009892535
685.92	0.11797	0.105178098	0.012791902
685.96	0.11767	0.105178731	0.012491269
686	0.11685	0.105179364	0.011670636
686.04	0.11304	0.105179997	0.007860003
686.08	0.10937	0.10518063	0.00418937
686.12	0.11283	0.105181263	0.007648737
686.16	0.11054	0.105181896	0.005358104
686.2	0.10514	0.105182529	-4.25288E-05
686.24	0.1056	0.105183162	0.000416838
686.28	0.11146	0.105183795	0.006276205
686.32	0.10927	0.105184428	0.004085572
686.36	0.1113	0.105185061	0.006114939
686.4	0.10932	0.105185694	0.004134306
686.44	0.10754	0.105186327	0.002353673
686.48	0.10749	0.10518696	0.00230304
686.52	0.10642	0.105187592	0.001232408
686.56	0.10642	0.105188225	0.001231775
686.6	0.10372	0.105188858	-0.001468858
686.64	0.10469	0.105189491	-0.000499491
686.68	0.10733	0.105190124	0.002139876
686.72	0.10733	0.105190757	0.002139243
686.76	0.10576	0.10519139	0.00056861
686.8	0.10464	0.105192023	-0.000552023
686.84	0.10494	0.105192656	-0.000252656
686.88	0.10632	0.105193289	0.001126711
686.92	0.1111	0.105193922	0.005906078
686.96	0.10382	0.105194555	-0.001374555
687	0.09832	0.105195188	-0.006875188
687.04	0.10738	0.105195821	0.002184179
687.08	0.10835	0.105196454	0.003153546
687.12	0.10662	0.105197087	0.001422913
687.16	0.10662	0.10519772	0.00142228
687.2	0.1057	0.105198353	0.000501647
687.24	0.10464	0.105198986	-0.000558986
687.28	0.11105	0.105199619	0.005850381
687.32	0.10922	0.105200252	0.004019748
687.36	0.10015	0.105200885	-0.005050885
687.4	0.09812	0.105201518	-0.007081518
687.44	0.09776	0.105202151	-0.007442151
687.48	0.1055	0.105202784	0.000297216
687.52	0.10545	0.105203416	0.000246584
687.56	0.10392	0.105204049	-0.001284049
687.6	0.10367	0.105204682	-0.001534682
687.64	0.10845	0.105205315	0.003244685
687.68	0.1112	0.105205948	0.005994052
687.72	0.1112	0.105206581	0.005993419
687.76	0.10825	0.105207214	0.003042786
687.8	0.10453	0.105207847	-0.000677847
687.84	0.10448	0.10520848	-0.00072848
687.88	0.10372	0.105209113	-0.001489113
687.92	0.1082	0.105209746	0.002990254
687.96	0.09893	0.105210379	-0.006280379
688	0.10611	0.105211012	0.000898988
688.04	0.10652	0.105211645	0.001308355
688.08	0.10183	0.105212278	-0.003382278
688.12	0.10479	0.105212911	-0.000422911
688.16	0.10937	0.105213544	0.004156456
688.2	0.10438	0.105214177	-0.000834177
688.24	0.10565	0.10521481	0.00043519
688.28	0.10265	0.105215443	-0.002565443
688.32	0.1028	0.105216076	-0.002416076
688.36	0.10469	0.105216709	-0.000526709
688.4	0.10392	0.105217342	-0.001297342
688.44	0.10377	0.105217975	-0.001447975
688.48	0.10092	0.105218608	-0.004298608
688.52	0.11039	0.10521924	0.00517076
688.56	0.10652	0.105219873	0.001300127
688.6	0.10744	0.105220506	0.002219494
688.64	0.10749	0.105221139	0.002268861
688.68	0.1027	0.105221772	-0.002521772
688.72	0.10372	0.105222405	-0.001502405
688.76	0.10173	0.105223038	-0.003493038
688.8	0.10377	0.105223671	-0.001453671
688.84	0.1084	0.105224304	0.003175696
688.88	0.10652	0.105224937	0.001295063
688.92	0.10647	0.10522557	0.00124443
688.96	0.10015	0.105226203	-0.005076203
689	0.10856	0.105226836	0.003333164
689.04	0.10922	0.105227469	0.003992531
689.08	0.10285	0.105228102	-0.002378102
689.12	0.10845	0.105228735	0.003221265
689.16	0.10178	0.105229368	-0.003449368
689.2	0.10148	0.105230001	-0.003750001
689.24	0.10387	0.105230634	-0.001360634
689.28	0.10453	0.105231267	-0.000701267
689.32	0.10453	0.1052319	-0.0007019
689.36	0.10372	0.105232533	-0.001512533
689.4	0.10754	0.105233166	0.002306834
689.44	0.10835	0.105233799	0.003116201
689.48	0.11029	0.105234432	0.005055568
689.52	0.11044	0.105235064	0.005204936
689.56	0.10917	0.105235697	0.003934303
689.6	0.10937	0.10523633	0.00413367
689.64	0.10275	0.105236963	-0.002486963
689.68	0.10525	0.105237596	1.24037E-05
689.72	0.10738	0.105238229	0.002141771
689.76	0.10469	0.105238862	-0.000548862
689.8	0.10474	0.105239495	-0.000499495
689.84	0.10189	0.105240128	-0.003350128
689.88	0.10453	0.105240761	-0.000710761
689.92	0.10168	0.105241394	-0.003561394
689.96	0.10845	0.105242027	0.003207973