	m	t	
f	1.17914E-08	0.0825889	
			
			
X in nm	Y Signal 	f	y-f
570.04	0.07653	0.082595622	-0.006065622
570.08	0.07648	0.082595622	-0.006115622
570.12	0.07933	0.082595623	-0.003265623
570.16	0.08305	0.082595623	0.000454377
570.2	0.07897	0.082595623	-0.003625623
570.24	0.07612	0.082595624	-0.006475624
570.28	0.07796	0.082595624	-0.004635624
570.32	0.08106	0.082595625	-0.001535625
570.36	0.08106	0.082595625	-0.001535625
570.4	0.07816	0.082595626	-0.004435626
570.44	0.07913	0.082595626	-0.003465626
570.48	0.08096	0.082595627	-0.001635627
570.52	0.08233	0.082595627	-0.000265627
570.56	0.07541	0.082595628	-0.007185628
570.6	0.08213	0.082595628	-0.000465628
570.64	0.08157	0.082595629	-0.001025629
570.68	0.07729	0.082595629	-0.005305629
570.72	0.07908	0.08259563	-0.00351563
570.76	0.08376	0.08259563	0.00116437
570.8	0.0831	0.082595631	0.000504369
570.84	0.08198	0.082595631	-0.000615631
570.88	0.07821	0.082595631	-0.004385631
570.92	0.08396	0.082595632	0.001364368
570.96	0.08412	0.082595632	0.001524368
571	0.08203	0.082595633	-0.000565633
571.04	0.07724	0.082595633	-0.005355633
571.08	0.07847	0.082595634	-0.004125634
571.12	0.08132	0.082595634	-0.001275634
571.16	0.0803	0.082595635	-0.002295635
571.2	0.08188	0.082595635	-0.000715635
571.24	0.08188	0.082595636	-0.000715636
571.28	0.07521	0.082595636	-0.007385636
571.32	0.08478	0.082595637	0.002184363
571.36	0.07368	0.082595637	-0.008915637
571.4	0.08177	0.082595638	-0.000825638
571.44	0.08004	0.082595638	-0.002555638
571.48	0.08106	0.082595639	-0.001535639
571.52	0.08473	0.082595639	0.002134361
571.56	0.08478	0.082595639	0.002184361
571.6	0.07999	0.08259564	-0.00260564
571.64	0.08172	0.08259564	-0.00087564
571.68	0.0831	0.082595641	0.000504359
571.72	0.07735	0.082595641	-0.005245641
571.76	0.07908	0.082595642	-0.003515642
571.8	0.07918	0.082595642	-0.003415642
571.84	0.07913	0.082595643	-0.003465643
571.88	0.08391	0.082595643	0.001314357
571.92	0.07923	0.082595644	-0.003365644
571.96	0.08198	0.082595644	-0.000615644
572	0.07826	0.082595645	-0.004335645
572.04	0.07831	0.082595645	-0.004285645
572.08	0.08295	0.082595646	0.000354354
572.12	0.0833	0.082595646	0.000704354
572.16	0.08223	0.082595647	-0.000365647
572.2	0.07933	0.082595647	-0.003265647
572.24	0.07816	0.082595648	-0.004435648
572.28	0.07999	0.082595648	-0.002605648
572.32	0.08396	0.082595648	0.001364352
572.36	0.08015	0.082595649	-0.002445649
572.4	0.08386	0.082595649	0.001264351
572.44	0.08396	0.08259565	0.00136435
572.48	0.08386	0.08259565	0.00126435
572.52	0.08091	0.082595651	-0.001685651
572.56	0.07745	0.082595651	-0.005145651
572.6	0.07724	0.082595652	-0.005355652
572.64	0.07831	0.082595652	-0.004285652
572.68	0.086	0.082595653	0.003404347
572.72	0.08605	0.082595653	0.003454347
572.76	0.083	0.082595654	0.000404346
572.8	0.07623	0.082595654	-0.006365654
572.84	0.08081	0.082595655	-0.001785655
572.88	0.08101	0.082595655	-0.001585655
572.92	0.07266	0.082595656	-0.009935656
572.96	0.07724	0.082595656	-0.005355656
573	0.07714	0.082595656	-0.005455656
573.04	0.08188	0.082595657	-0.000715657
573.08	0.07714	0.082595657	-0.005455657
573.12	0.08183	0.082595658	-0.000765658
573.16	0.0802	0.082595658	-0.002395658
573.2	0.08004	0.082595659	-0.002555659
573.24	0.0803	0.082595659	-0.002295659
573.28	0.08279	0.08259566	0.00019434
573.32	0.08284	0.08259566	0.00024434
573.36	0.07923	0.082595661	-0.003365661
573.4	0.07923	0.082595661	-0.003365661
573.44	0.08203	0.082595662	-0.000565662
573.48	0.07811	0.082595662	-0.004485662
573.52	0.07933	0.082595663	-0.003265663
573.56	0.08468	0.082595663	0.002084337
573.6	0.08498	0.082595664	0.002384336
573.64	0.07623	0.082595664	-0.006365664
573.68	0.07923	0.082595664	-0.003365664
573.72	0.08213	0.082595665	-0.000465665
573.76	0.08412	0.082595665	0.001524335
573.8	0.08325	0.082595666	0.000654334
573.84	0.07938	0.082595666	-0.003215666
573.88	0.07903	0.082595667	-0.003565667
573.92	0.07903	0.082595667	-0.003565667
573.96	0.08855	0.082595668	0.005954332
574	0.08295	0.082595668	0.000354332
574.04	0.08203	0.082595669	-0.000565669
574.08	0.07617	0.082595669	-0.006425669
574.12	0.08412	0.08259567	0.00152433
574.16	0.07933	0.08259567	-0.00326567
574.2	0.07918	0.082595671	-0.003415671
574.24	0.0859	0.082595671	0.003304329
574.28	0.07826	0.082595672	-0.004335672
574.32	0.08676	0.082595672	0.004164328
574.36	0.0832	0.082595673	0.000604327
574.4	0.08865	0.082595673	0.006054327
574.44	0.07923	0.082595673	-0.003365673
574.48	0.07908	0.082595674	-0.003515674
574.52	0.08289	0.082595674	0.000294326
574.56	0.08279	0.082595675	0.000194325
574.6	0.083	0.082595675	0.000404325
574.64	0.08401	0.082595676	0.001414324
574.68	0.08188	0.082595676	-0.000715676
574.72	0.08396	0.082595677	0.001364323
574.76	0.08396	0.082595677	0.001364323
574.8	0.08412	0.082595678	0.001524322
574.84	0.08223	0.082595678	-0.000365678
574.88	0.0832	0.082595679	0.000604321
574.92	0.07979	0.082595679	-0.002805679
574.96	0.08009	0.08259568	-0.00250568
575	0.08081	0.08259568	-0.00178568
575.04	0.08132	0.082595681	-0.001275681
575.08	0.08111	0.082595681	-0.001485681
575.12	0.08488	0.082595681	0.002284319
575.16	0.08396	0.082595682	0.001364318
575.2	0.08407	0.082595682	0.001474318
575.24	0.08203	0.082595683	-0.000565683
575.28	0.08203	0.082595683	-0.000565683
575.32	0.08188	0.082595684	-0.000715684
575.36	0.08198	0.082595684	-0.000615684
575.4	0.08086	0.082595685	-0.001735685
575.44	0.08295	0.082595685	0.000354315
575.48	0.07989	0.082595686	-0.002705686
575.52	0.08086	0.082595686	-0.001735686
575.56	0.08004	0.082595687	-0.002555687
575.6	0.08381	0.082595687	0.001214313
575.64	0.07821	0.082595688	-0.004385688
575.68	0.07811	0.082595688	-0.004485688
575.72	0.08595	0.082595689	0.003354311
575.76	0.09043	0.082595689	0.007834311
575.8	0.08106	0.082595689	-0.001535689
575.84	0.08396	0.08259569	0.00136431
575.88	0.08315	0.08259569	0.00055431
575.92	0.08478	0.082595691	0.002184309
575.96	0.08503	0.082595691	0.002434309
576	0.08391	0.082595692	0.001314308
576.04	0.08376	0.082595692	0.001164308
576.08	0.07908	0.082595693	-0.003515693
576.12	0.08188	0.082595693	-0.000715693
576.16	0.08783	0.082595694	0.005234306
576.2	0.08549	0.082595694	0.002894306
576.24	0.08595	0.082595695	0.003354305
576.28	0.08778	0.082595695	0.005184305
576.32	0.09043	0.082595696	0.007834304
576.36	0.08962	0.082595696	0.007024304
576.4	0.08605	0.082595697	0.003454303
576.44	0.09165	0.082595697	0.009054303
576.48	0.08015	0.082595698	-0.002445698
576.52	0.08391	0.082595698	0.001314302
576.56	0.08407	0.082595698	0.001474302
576.6	0.08289	0.082595699	0.000294301
576.64	0.08503	0.082595699	0.002434301
576.68	0.08875	0.0825957	0.0061543
576.72	0.08391	0.0825957	0.0013143
576.76	0.08585	0.082595701	0.003254299
576.8	0.083	0.082595701	0.000404299
576.84	0.0832	0.082595702	0.000604298
576.88	0.086	0.082595702	0.003404298
576.92	0.08009	0.082595703	-0.002505703
576.96	0.08177	0.082595703	-0.000825703
577	0.08203	0.082595704	-0.000565704
577.04	0.08478	0.082595704	0.002184296
577.08	0.08203	0.082595705	-0.000565705
577.12	0.08203	0.082595705	-0.000565705
577.16	0.08096	0.082595706	-0.001635706
577.2	0.0858	0.082595706	0.003204294
577.24	0.08111	0.082595706	-0.001485706
577.28	0.08025	0.082595707	-0.002345707
577.32	0.07841	0.082595707	-0.004185707
577.36	0.08009	0.082595708	-0.002505708
577.4	0.08514	0.082595708	0.002544292
577.44	0.08483	0.082595709	0.002234291
577.48	0.08203	0.082595709	-0.000565709
577.52	0.08025	0.08259571	-0.00234571
577.56	0.07826	0.08259571	-0.00433571
577.6	0.08478	0.082595711	0.002184289
577.64	0.07796	0.082595711	-0.004635711
577.68	0.07821	0.082595712	-0.004385712
577.72	0.07836	0.082595712	-0.004235712
577.76	0.07913	0.082595713	-0.003465713
577.8	0.07989	0.082595713	-0.002705713
577.84	0.0802	0.082595714	-0.002395714
577.88	0.07623	0.082595714	-0.006365714
577.92	0.07908	0.082595714	-0.003515714
577.96	0.07923	0.082595715	-0.003365715
578	0.08004	0.082595715	-0.002555715
578.04	0.08004	0.082595716	-0.002555716
578.08	0.07918	0.082595716	-0.003415716
578.12	0.08198	0.082595717	-0.000615717
578.16	0.08198	0.082595717	-0.000615717
578.2	0.08009	0.082595718	-0.002505718
578.24	0.08096	0.082595718	-0.001635718
578.28	0.08289	0.082595719	0.000294281
578.32	0.083	0.082595719	0.000404281
578.36	0.08188	0.08259572	-0.00071572
578.4	0.08132	0.08259572	-0.00127572
578.44	0.08015	0.082595721	-0.002445721
578.48	0.07913	0.082595721	-0.003465721
578.52	0.08091	0.082595722	-0.001685722
578.56	0.07816	0.082595722	-0.004435722
578.6	0.07801	0.082595723	-0.004585723
578.64	0.0775	0.082595723	-0.005095723
578.68	0.08289	0.082595723	0.000294277
578.72	0.08203	0.082595724	-0.000565724
578.76	0.07709	0.082595724	-0.005505724
578.8	0.08284	0.082595725	0.000244275
578.84	0.08091	0.082595725	-0.001685725
578.88	0.07994	0.082595726	-0.002655726
578.92	0.08025	0.082595726	-0.002345726
578.96	0.08183	0.082595727	-0.000765727
579	0.07755	0.082595727	-0.005045727
579.04	0.07526	0.082595728	-0.007335728
579.08	0.08284	0.082595728	0.000244272
579.12	0.07638	0.082595729	-0.006215729
579.16	0.07923	0.082595729	-0.003365729
579.2	0.07923	0.08259573	-0.00336573
579.24	0.07526	0.08259573	-0.00733573
579.28	0.0775	0.082595731	-0.005095731
579.32	0.08274	0.082595731	0.000144269
579.36	0.07913	0.082595731	-0.003465731
579.4	0.08401	0.082595732	0.001414268
579.44	0.07745	0.082595732	-0.005145732
579.48	0.07719	0.082595733	-0.005405733
579.52	0.07989	0.082595733	-0.002705733
579.56	0.08193	0.082595734	-0.000665734
579.6	0.08498	0.082595734	0.002384266
579.64	0.08004	0.082595735	-0.002555735
579.68	0.08208	0.082595735	-0.000515735
579.72	0.08193	0.082595736	-0.000665736
579.76	0.08101	0.082595736	-0.001585736
579.8	0.08111	0.082595737	-0.001485737
579.84	0.08473	0.082595737	0.002134263
579.88	0.08274	0.082595738	0.000144262
579.92	0.07913	0.082595738	-0.003465738
579.96	0.08183	0.082595739	-0.000765739
580	0.07913	0.082595739	-0.003465739
580.04	0.07999	0.082595739	-0.002605739
580.08	0.08015	0.08259574	-0.00244574
580.12	0.08371	0.08259574	0.00111426
580.16	0.08009	0.082595741	-0.002505741
580.2	0.08671	0.082595741	0.004114259
580.24	0.08177	0.082595742	-0.000825742
580.28	0.08839	0.082595742	0.005794258
580.32	0.08101	0.082595743	-0.001585743
580.36	0.08091	0.082595743	-0.001685743
580.4	0.08651	0.082595744	0.003914256
580.44	0.0802	0.082595744	-0.002395744
580.48	0.07903	0.082595745	-0.003565745
580.52	0.07903	0.082595745	-0.003565745
580.56	0.08183	0.082595746	-0.000765746
580.6	0.07938	0.082595746	-0.003215746
580.64	0.08417	0.082595747	0.001574253
580.68	0.08381	0.082595747	0.001214253
580.72	0.08407	0.082595748	0.001474252
580.76	0.08183	0.082595748	-0.000765748
580.8	0.08116	0.082595748	-0.001435748
580.84	0.08193	0.082595749	-0.000665749
580.88	0.08188	0.082595749	-0.000715749
580.92	0.08172	0.08259575	-0.00087575
580.96	0.08193	0.08259575	-0.00066575
581	0.07984	0.082595751	-0.002755751
581.04	0.08295	0.082595751	0.000354249
581.08	0.08198	0.082595752	-0.000615752
581.12	0.08412	0.082595752	0.001524248
581.16	0.08295	0.082595753	0.000354247
581.2	0.08794	0.082595753	0.005344247
581.24	0.0858	0.082595754	0.003204246
581.28	0.086	0.082595754	0.003404246
581.32	0.08376	0.082595755	0.001164245
581.36	0.08697	0.082595755	0.004374245
581.4	0.08768	0.082595756	0.005084244
581.44	0.08962	0.082595756	0.007024244
581.48	0.08585	0.082595756	0.003254244
581.52	0.09236	0.082595757	0.009764243
581.56	0.09262	0.082595757	0.010024243
581.6	0.08661	0.082595758	0.004014242
581.64	0.08773	0.082595758	0.005134242
581.68	0.09063	0.082595759	0.008034241
581.72	0.08009	0.082595759	-0.002505759
581.76	0.08595	0.08259576	0.00335424
581.8	0.08417	0.08259576	0.00157424
581.84	0.08401	0.082595761	0.001414239
581.88	0.08386	0.082595761	0.001264239
581.92	0.08946	0.082595762	0.006864238
581.96	0.08768	0.082595762	0.005084238
582	0.08666	0.082595763	0.004064237
582.04	0.08758	0.082595763	0.004984237
582.08	0.07999	0.082595764	-0.002605764
582.12	0.08651	0.082595764	0.003914236
582.16	0.08666	0.082595764	0.004064236
582.2	0.08478	0.082595765	0.002184235
582.24	0.07918	0.082595765	-0.003415765
582.28	0.07933	0.082595766	-0.003265766
582.32	0.08137	0.082595766	-0.001225766
582.36	0.08193	0.082595767	-0.000665767
582.4	0.08585	0.082595767	0.003254233
582.44	0.08559	0.082595768	0.002994232
582.48	0.08493	0.082595768	0.002334232
582.52	0.08666	0.082595769	0.004064231
582.56	0.08412	0.082595769	0.001524231
582.6	0.08091	0.08259577	-0.00168577
582.64	0.08386	0.08259577	0.00126423
582.68	0.08295	0.082595771	0.000354229
582.72	0.08259	0.082595771	-5.77108E-06
582.76	0.08376	0.082595772	0.001164228
582.8	0.08009	0.082595772	-0.002505772
582.84	0.08498	0.082595772	0.002384228
582.88	0.07826	0.082595773	-0.004335773
582.92	0.08111	0.082595773	-0.001485773
582.96	0.0832	0.082595774	0.000604226
583	0.07994	0.082595774	-0.002655774
583.04	0.08015	0.082595775	-0.002445775
583.08	0.0861	0.082595775	0.003504225
583.12	0.07724	0.082595776	-0.005355776
583.16	0.08279	0.082595776	0.000194224
583.2	0.0774	0.082595777	-0.005195777
583.24	0.07999	0.082595777	-0.002605777
583.28	0.08493	0.082595778	0.002334222
583.32	0.08483	0.082595778	0.002234222
583.36	0.08193	0.082595779	-0.000665779
583.4	0.07816	0.082595779	-0.004435779
583.44	0.07989	0.08259578	-0.00270578
583.48	0.08071	0.08259578	-0.00188578
583.52	0.08101	0.082595781	-0.001585781
583.56	0.07719	0.082595781	-0.005405781
583.6	0.07719	0.082595781	-0.005405781
583.64	0.07531	0.082595782	-0.007285782
583.68	0.07765	0.082595782	-0.004945782
583.72	0.0802	0.082595783	-0.002395783
583.76	0.08401	0.082595783	0.001414217
583.8	0.08076	0.082595784	-0.001835784
583.84	0.0774	0.082595784	-0.005195784
583.88	0.08773	0.082595785	0.005134215
583.92	0.08763	0.082595785	0.005034215
583.96	0.07918	0.082595786	-0.003415786
584	0.07847	0.082595786	-0.004125786
584.04	0.08188	0.082595787	-0.000715787
584.08	0.07801	0.082595787	-0.004585787
584.12	0.08188	0.082595788	-0.000715788
584.16	0.08086	0.082595788	-0.001735788
584.2	0.08101	0.082595789	-0.001585789
584.24	0.08198	0.082595789	-0.000615789
584.28	0.07999	0.082595789	-0.002605789
584.32	0.08188	0.08259579	-0.00071579
584.36	0.0831	0.08259579	0.00050421
584.4	0.08407	0.082595791	0.001474209
584.44	0.08595	0.082595791	0.003354209
584.48	0.07918	0.082595792	-0.003415792
584.52	0.07913	0.082595792	-0.003465792
584.56	0.08284	0.082595793	0.000244207
584.6	0.08483	0.082595793	0.002234207
584.64	0.07638	0.082595794	-0.006215794
584.68	0.08289	0.082595794	0.000294206
584.72	0.07918	0.082595795	-0.003415795
584.76	0.08412	0.082595795	0.001524205
584.8	0.08401	0.082595796	0.001414204
584.84	0.08401	0.082595796	0.001414204
584.88	0.08274	0.082595797	0.000144203
584.92	0.08605	0.082595797	0.003454203
584.96	0.07826	0.082595797	-0.004335797
585	0.08106	0.082595798	-0.001535798
585.04	0.08086	0.082595798	-0.001735798
585.08	0.08127	0.082595799	-0.001325799
585.12	0.07826	0.082595799	-0.004335799
585.16	0.0802	0.0825958	-0.0023958
585.2	0.08295	0.0825958	0.0003542
585.24	0.07903	0.082595801	-0.003565801
585.28	0.08198	0.082595801	-0.000615801
585.32	0.08009	0.082595802	-0.002505802
585.36	0.08004	0.082595802	-0.002555802
585.4	0.08015	0.082595803	-0.002445803
585.44	0.08086	0.082595803	-0.001735803
585.48	0.08386	0.082595804	0.001264196
585.52	0.08289	0.082595804	0.000294196
585.56	0.0859	0.082595805	0.003304195
585.6	0.08004	0.082595805	-0.002555805
585.64	0.08086	0.082595806	-0.001735806
585.68	0.08076	0.082595806	-0.001835806
585.72	0.08101	0.082595806	-0.001585806
585.76	0.08198	0.082595807	-0.000615807
585.8	0.07821	0.082595807	-0.004385807
585.84	0.0832	0.082595808	0.000604192
585.88	0.07811	0.082595808	-0.004485808
585.92	0.08198	0.082595809	-0.000615809
585.96	0.08208	0.082595809	-0.000515809
586	0.08106	0.08259581	-0.00153581
586.04	0.08585	0.08259581	0.00325419
586.08	0.08086	0.082595811	-0.001735811
586.12	0.08376	0.082595811	0.001164189
586.16	0.08081	0.082595812	-0.001785812
586.2	0.07821	0.082595812	-0.004385812
586.24	0.07984	0.082595813	-0.002755813
586.28	0.07979	0.082595813	-0.002805813
586.32	0.08305	0.082595814	0.000454186
586.36	0.08096	0.082595814	-0.001635814
586.4	0.08407	0.082595814	0.001474186
586.44	0.08035	0.082595815	-0.002245815
586.48	0.0858	0.082595815	0.003204185
586.52	0.08203	0.082595816	-0.000565816
586.56	0.08228	0.082595816	-0.000315816
586.6	0.08575	0.082595817	0.003154183
586.64	0.0859	0.082595817	0.003304183
586.68	0.08682	0.082595818	0.004224182
586.72	0.086	0.082595818	0.003404182
586.76	0.08396	0.082595819	0.001364181
586.8	0.083	0.082595819	0.000404181
586.84	0.0858	0.08259582	0.00320418
586.88	0.08585	0.08259582	0.00325418
586.92	0.09058	0.082595821	0.007984179
586.96	0.08885	0.082595821	0.006254179
587	0.09364	0.082595822	0.011044178
587.04	0.08763	0.082595822	0.005034178
587.08	0.08687	0.082595822	0.004274178
587.12	0.08753	0.082595823	0.004934177
587.16	0.08768	0.082595823	0.005084177
587.2	0.09226	0.082595824	0.009664176
587.24	0.08381	0.082595824	0.001214176
587.28	0.08198	0.082595825	-0.000615825
587.32	0.08401	0.082595825	0.001414175
587.36	0.09252	0.082595826	0.009924174
587.4	0.08982	0.082595826	0.007224174
587.44	0.08941	0.082595827	0.006814173
587.48	0.08407	0.082595827	0.001474173
587.52	0.08967	0.082595828	0.007074172
587.56	0.08305	0.082595828	0.000454172
587.6	0.08463	0.082595829	0.002034171
587.64	0.08651	0.082595829	0.003914171
587.68	0.07923	0.08259583	-0.00336583
587.72	0.07897	0.08259583	-0.00362583
587.76	0.07948	0.082595831	-0.003115831
587.8	0.08463	0.082595831	0.002034169
587.84	0.08768	0.082595831	0.005084169
587.88	0.07903	0.082595832	-0.003565832
587.92	0.08778	0.082595832	0.005184168
587.96	0.08213	0.082595833	-0.000465833
588	0.08009	0.082595833	-0.002505833
588.04	0.07999	0.082595834	-0.002605834
588.08	0.08514	0.082595834	0.002544166
588.12	0.08778	0.082595835	0.005184165
588.16	0.08366	0.082595835	0.001064165
588.2	0.07918	0.082595836	-0.003415836
588.24	0.08096	0.082595836	-0.001635836
588.28	0.08183	0.082595837	-0.000765837
588.32	0.08172	0.082595837	-0.000875837
588.36	0.08183	0.082595838	-0.000765838
588.4	0.07831	0.082595838	-0.004285838
588.44	0.08493	0.082595839	0.002334161
588.48	0.08284	0.082595839	0.000244161
588.52	0.07999	0.082595839	-0.002605839
588.56	0.08009	0.08259584	-0.00250584
588.6	0.07994	0.08259584	-0.00265584
588.64	0.07999	0.082595841	-0.002605841
588.68	0.08183	0.082595841	-0.000765841
588.72	0.08009	0.082595842	-0.002505842
588.76	0.07801	0.082595842	-0.004585842
588.8	0.08188	0.082595843	-0.000715843
588.84	0.08289	0.082595843	0.000294157
588.88	0.083	0.082595844	0.000404156
588.92	0.083	0.082595844	0.000404156
588.96	0.08468	0.082595845	0.002084155
589	0.08004	0.082595845	-0.002555845
589.04	0.08305	0.082595846	0.000454154
589.08	0.08127	0.082595846	-0.001325846
589.12	0.08478	0.082595847	0.002184153
589.16	0.07836	0.082595847	-0.004235847
589.2	0.07816	0.082595847	-0.004435847
589.24	0.07638	0.082595848	-0.006215848
589.28	0.08295	0.082595848	0.000354152
589.32	0.08305	0.082595849	0.000454151
589.36	0.08015	0.082595849	-0.002445849
589.4	0.08391	0.08259585	0.00131415
589.44	0.07714	0.08259585	-0.00545585
589.48	0.07999	0.082595851	-0.002605851
589.52	0.08025	0.082595851	-0.002345851
589.56	0.086	0.082595852	0.003404148
589.6	0.07836	0.082595852	-0.004235852
589.64	0.08575	0.082595853	0.003154147
589.68	0.0885	0.082595853	0.005904147
589.72	0.08396	0.082595854	0.001364146
589.76	0.08829	0.082595854	0.005694146
589.8	0.08855	0.082595855	0.005954145
589.84	0.0802	0.082595855	-0.002395855
589.88	0.0859	0.082595856	0.003304144
589.92	0.08855	0.082595856	0.005954144
589.96	0.08391	0.082595856	0.001314144
590	0.08473	0.082595857	0.002134143
590.04	0.08391	0.082595857	0.001314143
590.08	0.08585	0.082595858	0.003254142
590.12	0.0857	0.082595858	0.003104142
590.16	0.08203	0.082595859	-0.000565859
590.2	0.08193	0.082595859	-0.000665859
590.24	0.08493	0.08259586	0.00233414
590.28	0.08473	0.08259586	0.00213414
590.32	0.08768	0.082595861	0.005084139
590.36	0.08488	0.082595861	0.002284139
590.4	0.08488	0.082595862	0.002284138
590.44	0.08396	0.082595862	0.001364138
590.48	0.08396	0.082595863	0.001364137
590.52	0.08788	0.082595863	0.005284137
590.56	0.08478	0.082595864	0.002184136
590.6	0.08697	0.082595864	0.004374136
590.64	0.09058	0.082595864	0.007984136
590.68	0.09063	0.082595865	0.008034135
590.72	0.07933	0.082595865	-0.003265865
590.76	0.08111	0.082595866	-0.001485866
590.8	0.08371	0.082595866	0.001114134
590.84	0.08498	0.082595867	0.002384133
590.88	0.08305	0.082595867	0.000454133
590.92	0.08758	0.082595868	0.004984132
590.96	0.08391	0.082595868	0.001314132
591	0.08396	0.082595869	0.001364131
591.04	0.08295	0.082595869	0.000354131
591.08	0.08386	0.08259587	0.00126413
591.12	0.08203	0.08259587	-0.00056587
591.16	0.08422	0.082595871	0.001624129
591.2	0.08295	0.082595871	0.000354129
591.24	0.08289	0.082595872	0.000294128
591.28	0.08274	0.082595872	0.000144128
591.32	0.08834	0.082595872	0.005744128
591.36	0.08783	0.082595873	0.005234127
591.4	0.083	0.082595873	0.000404127
591.44	0.08682	0.082595874	0.004224126
591.48	0.08274	0.082595874	0.000144126
591.52	0.08743	0.082595875	0.004834125
591.56	0.08778	0.082595875	0.005184125
591.6	0.08758	0.082595876	0.004984124
591.64	0.08081	0.082595876	-0.001785876
591.68	0.08091	0.082595877	-0.001685877
591.72	0.0802	0.082595877	-0.002395877
591.76	0.08564	0.082595878	0.003044122
591.8	0.08478	0.082595878	0.002184122
591.84	0.08183	0.082595879	-0.000765879
591.88	0.08183	0.082595879	-0.000765879
591.92	0.08478	0.08259588	0.00218412
591.96	0.08284	0.08259588	0.00024412
592	0.08407	0.082595881	0.001474119
592.04	0.083	0.082595881	0.000404119
592.08	0.08289	0.082595881	0.000294119
592.12	0.08198	0.082595882	-0.000615882
592.16	0.08193	0.082595882	-0.000665882
592.2	0.08193	0.082595883	-0.000665883
592.24	0.08009	0.082595883	-0.002505883
592.28	0.07638	0.082595884	-0.006215884
592.32	0.0832	0.082595884	0.000604116
592.36	0.08213	0.082595885	-0.000465885
592.4	0.08101	0.082595885	-0.001585885
592.44	0.08203	0.082595886	-0.000565886
592.48	0.08198	0.082595886	-0.000615886
592.52	0.08289	0.082595887	0.000294113
592.56	0.08183	0.082595887	-0.000765887
592.6	0.08575	0.082595888	0.003154112
592.64	0.08452	0.082595888	0.001924112
592.68	0.08778	0.082595889	0.005184111
592.72	0.08106	0.082595889	-0.001535889
592.76	0.08142	0.082595889	-0.001175889
592.8	0.07918	0.08259589	-0.00341589
592.84	0.08025	0.08259589	-0.00234589
592.88	0.08188	0.082595891	-0.000715891
592.92	0.08004	0.082595891	-0.002555891
592.96	0.08198	0.082595892	-0.000615892
593	0.08198	0.082595892	-0.000615892
593.04	0.08183	0.082595893	-0.000765893
593.08	0.08188	0.082595893	-0.000715893
593.12	0.08091	0.082595894	-0.001685894
593.16	0.07933	0.082595894	-0.003265894
593.2	0.08305	0.082595895	0.000454105
593.24	0.0833	0.082595895	0.000704105
593.28	0.083	0.082595896	0.000404104
593.32	0.08193	0.082595896	-0.000665896
593.36	0.08213	0.082595897	-0.000465897
593.4	0.08218	0.082595897	-0.000415897
593.44	0.08096	0.082595897	-0.001635897
593.48	0.08305	0.082595898	0.000454102
593.52	0.08193	0.082595898	-0.000665898
593.56	0.08493	0.082595899	0.002334101
593.6	0.08213	0.082595899	-0.000465899
593.64	0.08183	0.0825959	-0.0007659
593.68	0.07903	0.0825959	-0.0035659
593.72	0.083	0.082595901	0.000404099
593.76	0.07831	0.082595901	-0.004285901
593.8	0.08605	0.082595902	0.003454098
593.84	0.08004	0.082595902	-0.002555902
593.88	0.08213	0.082595903	-0.000465903
593.92	0.08193	0.082595903	-0.000665903
593.96	0.08401	0.082595904	0.001414096
594	0.07908	0.082595904	-0.003515904
594.04	0.08004	0.082595905	-0.002555905
594.08	0.08177	0.082595905	-0.000825905
594.12	0.08498	0.082595906	0.002384094
594.16	0.08004	0.082595906	-0.002555906
594.2	0.08386	0.082595906	0.001264094
594.24	0.08412	0.082595907	0.001524093
594.28	0.08682	0.082595907	0.004224093
594.32	0.07821	0.082595908	-0.004385908
594.36	0.07897	0.082595908	-0.003625908
594.4	0.08376	0.082595909	0.001164091
594.44	0.08106	0.082595909	-0.001535909
594.48	0.08295	0.08259591	0.00035409
594.52	0.08259	0.08259591	-5.91022E-06
594.56	0.08086	0.082595911	-0.001735911
594.6	0.08193	0.082595911	-0.000665911
594.64	0.08009	0.082595912	-0.002505912
594.68	0.08468	0.082595912	0.002084088
594.72	0.083	0.082595913	0.000404087
594.76	0.0803	0.082595913	-0.002295913
594.8	0.08015	0.082595914	-0.002445914
594.84	0.08503	0.082595914	0.002434086
594.88	0.0889	0.082595914	0.006304086
594.92	0.08218	0.082595915	-0.000415915
594.96	0.08401	0.082595915	0.001414085
595	0.083	0.082595916	0.000404084
595.04	0.08381	0.082595916	0.001214084
595.08	0.08198	0.082595917	-0.000615917
595.12	0.08203	0.082595917	-0.000565917
595.16	0.08575	0.082595918	0.003154082
595.2	0.08116	0.082595918	-0.001435918
595.24	0.07903	0.082595919	-0.003565919
595.28	0.0803	0.082595919	-0.002295919
595.32	0.08483	0.08259592	0.00223408
595.36	0.0802	0.08259592	-0.00239592
595.4	0.08009	0.082595921	-0.002505921
595.44	0.08015	0.082595921	-0.002445921
595.48	0.08483	0.082595922	0.002234078
595.52	0.08289	0.082595922	0.000294078
595.56	0.08203	0.082595922	-0.000565922
595.6	0.08391	0.082595923	0.001314077
595.64	0.08183	0.082595923	-0.000765923
595.68	0.08295	0.082595924	0.000354076
595.72	0.083	0.082595924	0.000404076
595.76	0.08188	0.082595925	-0.000715925
595.8	0.0833	0.082595925	0.000704075
595.84	0.08086	0.082595926	-0.001735926
595.88	0.08305	0.082595926	0.000454074
595.92	0.07847	0.082595927	-0.004125927
595.96	0.08463	0.082595927	0.002034073
596	0.08458	0.082595928	0.001984072
596.04	0.08473	0.082595928	0.002134072
596.08	0.07806	0.082595929	-0.004535929
596.12	0.08855	0.082595929	0.005954071
596.16	0.0831	0.08259593	0.00050407
596.2	0.083	0.08259593	0.00040407
596.24	0.08025	0.082595931	-0.002345931
596.28	0.08004	0.082595931	-0.002555931
596.32	0.08218	0.082595931	-0.000415931
596.36	0.08646	0.082595932	0.003864068
596.4	0.08401	0.082595932	0.001414068
596.44	0.08391	0.082595933	0.001314067
596.48	0.07923	0.082595933	-0.003365933
596.52	0.08488	0.082595934	0.002284066
596.56	0.08284	0.082595934	0.000244066
596.6	0.08269	0.082595935	9.40653E-05
596.64	0.08412	0.082595935	0.001524065
596.68	0.08447	0.082595936	0.001874064
596.72	0.086	0.082595936	0.003404064
596.76	0.08279	0.082595937	0.000194063
596.8	0.08682	0.082595937	0.004224063
596.84	0.08743	0.082595938	0.004834062
596.88	0.08768	0.082595938	0.005084062
596.92	0.08412	0.082595939	0.001524061
596.96	0.08188	0.082595939	-0.000715939
597	0.08208	0.082595939	-0.000515939
597.04	0.08284	0.08259594	0.00024406
597.08	0.08962	0.08259594	0.00702406
597.12	0.08086	0.082595941	-0.001735941
597.16	0.0806	0.082595941	-0.001995941
597.2	0.08401	0.082595942	0.001414058
597.24	0.08773	0.082595942	0.005134058
597.28	0.08407	0.082595943	0.001474057
597.32	0.08483	0.082595943	0.002234057
597.36	0.08386	0.082595944	0.001264056
597.4	0.0861	0.082595944	0.003504056
597.44	0.08804	0.082595945	0.005444055
597.48	0.08783	0.082595945	0.005234055
597.52	0.08585	0.082595946	0.003254054
597.56	0.08865	0.082595946	0.006054054
597.6	0.08101	0.082595947	-0.001585947
597.64	0.08682	0.082595947	0.004224053
597.68	0.08763	0.082595947	0.005034053
597.72	0.08391	0.082595948	0.001314052
597.76	0.08401	0.082595948	0.001414052
597.8	0.08015	0.082595949	-0.002445949
597.84	0.08386	0.082595949	0.001264051
597.88	0.08284	0.08259595	0.00024405
597.92	0.086	0.08259595	0.00340405
597.96	0.08468	0.082595951	0.002084049
598	0.08188	0.082595951	-0.000715951
598.04	0.086	0.082595952	0.003404048
598.08	0.08595	0.082595952	0.003354048
598.12	0.08468	0.082595953	0.002084047
598.16	0.08289	0.082595953	0.000294047
598.2	0.08407	0.082595954	0.001474046
598.24	0.08768	0.082595954	0.005084046
598.28	0.08768	0.082595955	0.005084045
598.32	0.08376	0.082595955	0.001164045
598.36	0.08361	0.082595956	0.001014044
598.4	0.08483	0.082595956	0.002234044
598.44	0.08778	0.082595956	0.005184044
598.48	0.08407	0.082595957	0.001474043
598.52	0.08407	0.082595957	0.001474043
598.56	0.08463	0.082595958	0.002034042
598.6	0.08473	0.082595958	0.002134042
598.64	0.08498	0.082595959	0.002384041
598.68	0.08778	0.082595959	0.005184041
598.72	0.08514	0.08259596	0.00254404
598.76	0.08305	0.08259596	0.00045404
598.8	0.08463	0.082595961	0.002034039
598.84	0.08269	0.082595961	9.40388E-05
598.88	0.07811	0.082595962	-0.004485962
598.92	0.08401	0.082595962	0.001414038
598.96	0.08391	0.082595963	0.001314037
599	0.08676	0.082595963	0.004164037
599.04	0.08396	0.082595964	0.001364036
599.08	0.07903	0.082595964	-0.003565964
599.12	0.08305	0.082595964	0.000454036
599.16	0.08111	0.082595965	-0.001485965
599.2	0.08473	0.082595965	0.002134035
599.24	0.08478	0.082595966	0.002184034
599.28	0.08101	0.082595966	-0.001585966
599.32	0.0831	0.082595967	0.000504033
599.36	0.08595	0.082595967	0.003354033
599.4	0.08198	0.082595968	-0.000615968
599.44	0.08188	0.082595968	-0.000715968
599.48	0.08116	0.082595969	-0.001435969
599.52	0.08101	0.082595969	-0.001585969
599.56	0.08875	0.08259597	0.00615403
599.6	0.07913	0.08259597	-0.00346597
599.64	0.08407	0.082595971	0.001474029
599.68	0.07999	0.082595971	-0.002605971
599.72	0.08488	0.082595972	0.002284028
599.76	0.08325	0.082595972	0.000654028
599.8	0.08183	0.082595972	-0.000765972
599.84	0.08213	0.082595973	-0.000465973
599.88	0.08198	0.082595973	-0.000615973
599.92	0.08106	0.082595974	-0.001535974
599.96	0.08172	0.082595974	-0.000875974
600	0.07938	0.082595975	-0.003215975
600.04	0.08096	0.082595975	-0.001635975
600.08	0.08407	0.082595976	0.001474024
600.12	0.08396	0.082595976	0.001364024
600.16	0.08015	0.082595977	-0.002445977
600.2	0.08121	0.082595977	-0.001385977
600.24	0.083	0.082595978	0.000404022
600.28	0.08157	0.082595978	-0.001025978
600.32	0.07989	0.082595979	-0.002705979
600.36	0.0831	0.082595979	0.000504021
600.4	0.08295	0.08259598	0.00035402
600.44	0.08295	0.08259598	0.00035402
600.48	0.08289	0.08259598	0.00029402
600.52	0.0832	0.082595981	0.000604019
600.56	0.08325	0.082595981	0.000654019
600.6	0.08096	0.082595982	-0.001635982
600.64	0.08004	0.082595982	-0.002555982
600.68	0.08193	0.082595983	-0.000665983
600.72	0.08193	0.082595983	-0.000665983
600.76	0.0774	0.082595984	-0.005195984
600.8	0.08193	0.082595984	-0.000665984
600.84	0.07836	0.082595985	-0.004235985
600.88	0.08198	0.082595985	-0.000615985
600.92	0.08193	0.082595986	-0.000665986
600.96	0.08106	0.082595986	-0.001535986
601	0.08106	0.082595987	-0.001535987
601.04	0.08412	0.082595987	0.001524013
601.08	0.08096	0.082595988	-0.001635988
601.12	0.08284	0.082595988	0.000244012
601.16	0.07735	0.082595989	-0.005245989
601.2	0.08289	0.082595989	0.000294011
601.24	0.08488	0.082595989	0.002284011
601.28	0.08015	0.08259599	-0.00244599
601.32	0.0802	0.08259599	-0.00239599
601.36	0.08463	0.082595991	0.002034009
601.4	0.08015	0.082595991	-0.002445991
601.44	0.07821	0.082595992	-0.004385992
601.48	0.07999	0.082595992	-0.002605992
601.52	0.08376	0.082595993	0.001164007
601.56	0.0776	0.082595993	-0.004995993
601.6	0.0775	0.082595994	-0.005095994
601.64	0.08198	0.082595994	-0.000615994
601.68	0.08289	0.082595995	0.000294005
601.72	0.08391	0.082595995	0.001314005
601.76	0.08188	0.082595996	-0.000715996
601.8	0.08086	0.082595996	-0.001735996
601.84	0.07903	0.082595997	-0.003565997
601.88	0.07918	0.082595997	-0.003415997
601.92	0.07999	0.082595997	-0.002605997
601.96	0.083	0.082595998	0.000404002
602	0.08391	0.082595998	0.001314002
602.04	0.08218	0.082595999	-0.000415999
602.08	0.08473	0.082595999	0.002134001
602.12	0.08009	0.082596	-0.002506
602.16	0.08473	0.082596	0.002134
602.2	0.08478	0.082596001	0.002183999
602.24	0.08198	0.082596001	-0.000616001
602.28	0.08025	0.082596002	-0.002346002
602.32	0.08295	0.082596002	0.000353998
602.36	0.07704	0.082596003	-0.005556003
602.4	0.08096	0.082596003	-0.001636003
602.44	0.08218	0.082596004	-0.000416004
602.48	0.08198	0.082596004	-0.000616004
602.52	0.08483	0.082596005	0.002233995
602.56	0.08009	0.082596005	-0.002506005
602.6	0.08188	0.082596005	-0.000716005
602.64	0.08193	0.082596006	-0.000666006
602.68	0.08213	0.082596006	-0.000466006
602.72	0.07999	0.082596007	-0.002606007
602.76	0.08009	0.082596007	-0.002506007
602.8	0.08295	0.082596008	0.000353992
602.84	0.07801	0.082596008	-0.004586008
602.88	0.08269	0.082596009	9.39912E-05
602.92	0.08279	0.082596009	0.000193991
602.96	0.08279	0.08259601	0.00019399
603	0.08386	0.08259601	0.00126399
603.04	0.08091	0.082596011	-0.001686011
603.08	0.08111	0.082596011	-0.001486011
603.12	0.07836	0.082596012	-0.004236012
603.16	0.08071	0.082596012	-0.001886012
603.2	0.07689	0.082596013	-0.005706013
603.24	0.08127	0.082596013	-0.001326013
603.28	0.07821	0.082596014	-0.004386014
603.32	0.08009	0.082596014	-0.002506014
603.36	0.07999	0.082596014	-0.002606014
603.4	0.08391	0.082596015	0.001313985
603.44	0.08193	0.082596015	-0.000666015
603.48	0.08091	0.082596016	-0.001686016
603.52	0.08412	0.082596016	0.001523984
603.56	0.07999	0.082596017	-0.002606017
603.6	0.08315	0.082596017	0.000553983
603.64	0.08279	0.082596018	0.000193982
603.68	0.08279	0.082596018	0.000193982
603.72	0.08091	0.082596019	-0.001686019
603.76	0.0831	0.082596019	0.000503981
603.8	0.08488	0.08259602	0.00228398
603.84	0.083	0.08259602	0.00040398
603.88	0.08407	0.082596021	0.001473979
603.92	0.08666	0.082596021	0.004063979
603.96	0.08697	0.082596022	0.004373978
604	0.08233	0.082596022	-0.000266022
604.04	0.08554	0.082596022	0.002943978
604.08	0.07903	0.082596023	-0.003566023
604.12	0.08468	0.082596023	0.002083977
604.16	0.08564	0.082596024	0.003043976
604.2	0.08692	0.082596024	0.004323976
604.24	0.08692	0.082596025	0.004323975
604.28	0.07989	0.082596025	-0.002706025
604.32	0.083	0.082596026	0.000403974
604.36	0.08213	0.082596026	-0.000466026
604.4	0.08855	0.082596027	0.005953973
604.44	0.08768	0.082596027	0.005083973
604.48	0.08335	0.082596028	0.000753972
604.52	0.08676	0.082596028	0.004163972
604.56	0.08651	0.082596029	0.003913971
604.6	0.08773	0.082596029	0.005133971
604.64	0.08188	0.08259603	-0.00071603
604.68	0.0774	0.08259603	-0.00519603
604.72	0.08483	0.08259603	0.00223397
604.76	0.08463	0.082596031	0.002033969
604.8	0.08396	0.082596031	0.001363969
604.84	0.08386	0.082596032	0.001263968
604.88	0.08121	0.082596032	-0.001386032
604.92	0.08315	0.082596033	0.000553967
604.96	0.08203	0.082596033	-0.000566033
605	0.08009	0.082596034	-0.002506034
605.04	0.0858	0.082596034	0.003203966
605.08	0.08004	0.082596035	-0.002556035
605.12	0.07984	0.082596035	-0.002756035
605.16	0.08116	0.082596036	-0.001436036
605.2	0.08564	0.082596036	0.003043964
605.24	0.08218	0.082596037	-0.000416037
605.28	0.08101	0.082596037	-0.001586037
605.32	0.08198	0.082596038	-0.000616038
605.36	0.08483	0.082596038	0.002233962
605.4	0.08483	0.082596039	0.002233961
605.44	0.08493	0.082596039	0.002333961
605.48	0.08702	0.082596039	0.004423961
605.52	0.07943	0.08259604	-0.00316604
605.56	0.08193	0.08259604	-0.00066604
605.6	0.08183	0.082596041	-0.000766041
605.64	0.07994	0.082596041	-0.002656041
605.68	0.08473	0.082596042	0.002133958
605.72	0.08493	0.082596042	0.002333958
605.76	0.0833	0.082596043	0.000703957
605.8	0.07551	0.082596043	-0.007086043
605.84	0.08407	0.082596044	0.001473956
605.88	0.08483	0.082596044	0.002233956
605.92	0.08407	0.082596045	0.001473955
605.96	0.08407	0.082596045	0.001473955
606	0.07918	0.082596046	-0.003416046
606.04	0.07928	0.082596046	-0.003316046
606.08	0.0802	0.082596047	-0.002396047
606.12	0.07903	0.082596047	-0.003566047
606.16	0.08183	0.082596047	-0.000766047
606.2	0.08305	0.082596048	0.000453952
606.24	0.07826	0.082596048	-0.004336048
606.28	0.08605	0.082596049	0.003453951
606.32	0.08595	0.082596049	0.003353951
606.36	0.08106	0.08259605	-0.00153605
606.4	0.07704	0.08259605	-0.00555605
606.44	0.08493	0.082596051	0.002333949
606.48	0.08493	0.082596051	0.002333949
606.52	0.08004	0.082596052	-0.002556052
606.56	0.07892	0.082596052	-0.003676052
606.6	0.07918	0.082596053	-0.003416053
606.64	0.086	0.082596053	0.003403947
606.68	0.07811	0.082596054	-0.004486054
606.72	0.08071	0.082596054	-0.001886054
606.76	0.08412	0.082596055	0.001523945
606.8	0.08289	0.082596055	0.000293945
606.84	0.08269	0.082596055	9.39445E-05
606.88	0.08106	0.082596056	-0.001536056
606.92	0.08111	0.082596056	-0.001486056
606.96	0.08376	0.082596057	0.001163943
607	0.08025	0.082596057	-0.002346057
607.04	0.08203	0.082596058	-0.000566058
607.08	0.07984	0.082596058	-0.002756058
607.12	0.07994	0.082596059	-0.002656059
607.16	0.08381	0.082596059	0.001213941
607.2	0.08381	0.08259606	0.00121394
607.24	0.08651	0.08259606	0.00391394
607.28	0.08478	0.082596061	0.002183939
607.32	0.0885	0.082596061	0.005903939
607.36	0.08193	0.082596062	-0.000666062
607.4	0.08508	0.082596062	0.002483938
607.44	0.0858	0.082596063	0.003203937
607.48	0.08595	0.082596063	0.003353937
607.52	0.08575	0.082596064	0.003153936
607.56	0.08855	0.082596064	0.005953936
607.6	0.08228	0.082596064	-0.000316064
607.64	0.08605	0.082596065	0.003453935
607.68	0.08289	0.082596065	0.000293935
607.72	0.08407	0.082596066	0.001473934
607.76	0.08488	0.082596066	0.002283934
607.8	0.08473	0.082596067	0.002133933
607.84	0.07999	0.082596067	-0.002606067
607.88	0.08381	0.082596068	0.001213932
607.92	0.0858	0.082596068	0.003203932
607.96	0.08508	0.082596069	0.002483931
608	0.09043	0.082596069	0.007833931
608.04	0.08193	0.08259607	-0.00066607
608.08	0.08213	0.08259607	-0.00046607
608.12	0.08473	0.082596071	0.002133929
608.16	0.08788	0.082596071	0.005283929
608.2	0.08401	0.082596072	0.001413928
608.24	0.08753	0.082596072	0.004933928
608.28	0.08651	0.082596072	0.003913928
608.32	0.08025	0.082596073	-0.002346073
608.36	0.07984	0.082596073	-0.002756073
608.4	0.08116	0.082596074	-0.001436074
608.44	0.08412	0.082596074	0.001523926
608.48	0.08111	0.082596075	-0.001486075
608.52	0.0859	0.082596075	0.003303925
608.56	0.08483	0.082596076	0.002233924
608.6	0.08177	0.082596076	-0.000826076
608.64	0.07999	0.082596077	-0.002606077
608.68	0.08015	0.082596077	-0.002446077
608.72	0.08177	0.082596078	-0.000826078
608.76	0.08305	0.082596078	0.000453922
608.8	0.08483	0.082596079	0.002233921
608.84	0.08208	0.082596079	-0.000516079
608.88	0.08768	0.08259608	0.00508392
608.92	0.08223	0.08259608	-0.00036608
608.96	0.08203	0.08259608	-0.00056608
609	0.08025	0.082596081	-0.002346081
609.04	0.08386	0.082596081	0.001263919
609.08	0.08575	0.082596082	0.003153918
609.12	0.0832	0.082596082	0.000603918
609.16	0.08396	0.082596083	0.001363917
609.2	0.08106	0.082596083	-0.001536083
609.24	0.0858	0.082596084	0.003203916
609.28	0.08575	0.082596084	0.003153916
609.32	0.07821	0.082596085	-0.004386085
609.36	0.08198	0.082596085	-0.000616085
609.4	0.0831	0.082596086	0.000503914
609.44	0.08676	0.082596086	0.004163914
609.48	0.08183	0.082596087	-0.000766087
609.52	0.08437	0.082596087	0.001773913
609.56	0.08386	0.082596088	0.001263912
609.6	0.08274	0.082596088	0.000143912
609.64	0.07989	0.082596089	-0.002706089
609.68	0.08203	0.082596089	-0.000566089
609.72	0.08478	0.082596089	0.002183911
609.76	0.08478	0.08259609	0.00218391
609.8	0.08188	0.08259609	-0.00071609
609.84	0.08177	0.082596091	-0.000826091
609.88	0.08386	0.082596091	0.001263909
609.92	0.083	0.082596092	0.000403908
609.96	0.0831	0.082596092	0.000503908
610	0.0859	0.082596093	0.003303907
610.04	0.07831	0.082596093	-0.004286093
610.08	0.08468	0.082596094	0.002083906
610.12	0.07847	0.082596094	-0.004126094
610.16	0.07836	0.082596095	-0.004236095
610.2	0.08315	0.082596095	0.000553905
610.24	0.08468	0.082596096	0.002083904
610.28	0.08091	0.082596096	-0.001686096
610.32	0.07729	0.082596097	-0.005306097
610.36	0.08193	0.082596097	-0.000666097
610.4	0.08106	0.082596097	-0.001536097
610.44	0.08121	0.082596098	-0.001386098
610.48	0.08289	0.082596098	0.000293902
610.52	0.08473	0.082596099	0.002133901
610.56	0.07999	0.082596099	-0.002606099
610.6	0.07826	0.0825961	-0.0043361
610.64	0.07617	0.0825961	-0.0064261
610.68	0.08391	0.082596101	0.001313899
610.72	0.08401	0.082596101	0.001413899
610.76	0.08284	0.082596102	0.000243898
610.8	0.08091	0.082596102	-0.001686102
610.84	0.08183	0.082596103	-0.000766103
610.88	0.08086	0.082596103	-0.001736103
610.92	0.08116	0.082596104	-0.001436104
610.96	0.08106	0.082596104	-0.001536104
611	0.08004	0.082596105	-0.002556105
611.04	0.07994	0.082596105	-0.002656105
611.08	0.08493	0.082596105	0.002333895
611.12	0.08488	0.082596106	0.002283894
611.16	0.083	0.082596106	0.000403894
611.2	0.08101	0.082596107	-0.001586107
611.24	0.07811	0.082596107	-0.004486107
611.28	0.08305	0.082596108	0.000453892
611.32	0.083	0.082596108	0.000403892
611.36	0.07913	0.082596109	-0.003466109
611.4	0.08417	0.082596109	0.001573891
611.44	0.08407	0.08259611	0.00147389
611.48	0.08259	0.08259611	-6.11021E-06
611.52	0.08768	0.082596111	0.005083889
611.56	0.08091	0.082596111	-0.001686111
611.6	0.08661	0.082596112	0.004013888
611.64	0.08702	0.082596112	0.004423888
611.68	0.08305	0.082596113	0.000453887
611.72	0.08788	0.082596113	0.005283887
611.76	0.08009	0.082596114	-0.002506114
611.8	0.08269	0.082596114	9.3886E-05
611.84	0.08289	0.082596114	0.000293886
611.88	0.08193	0.082596115	-0.000666115
611.92	0.08218	0.082596115	-0.000416115
611.96	0.08295	0.082596116	0.000353884
612	0.08656	0.082596116	0.003963884
612.04	0.07811	0.082596117	-0.004486117
612.08	0.08483	0.082596117	0.002233883
612.12	0.08412	0.082596118	0.001523882
612.16	0.08101	0.082596118	-0.001586118
612.2	0.08076	0.082596119	-0.001836119
612.24	0.08671	0.082596119	0.004113881
612.28	0.08498	0.08259612	0.00238388
612.32	0.08412	0.08259612	0.00152388
612.36	0.08086	0.082596121	-0.001736121
612.4	0.08498	0.082596121	0.002383879
612.44	0.08468	0.082596122	0.002083878
612.48	0.08585	0.082596122	0.003253878
612.52	0.0857	0.082596122	0.003103878
612.56	0.08091	0.082596123	-0.001686123
612.6	0.08401	0.082596123	0.001413877
612.64	0.08004	0.082596124	-0.002556124
612.68	0.08116	0.082596124	-0.001436124
612.72	0.08401	0.082596125	0.001413875
612.76	0.08208	0.082596125	-0.000516125
612.8	0.08177	0.082596126	-0.000826126
612.84	0.07897	0.082596126	-0.003626126
612.88	0.08478	0.082596127	0.002183873
612.92	0.07974	0.082596127	-0.002856127
612.96	0.08376	0.082596128	0.001163872
613	0.07628	0.082596128	-0.006316128
613.04	0.08183	0.082596129	-0.000766129
613.08	0.08193	0.082596129	-0.000666129
613.12	0.0831	0.08259613	0.00050387
613.16	0.08279	0.08259613	0.00019387
613.2	0.08977	0.08259613	0.00717387
613.24	0.08213	0.082596131	-0.000466131
613.28	0.08381	0.082596131	0.001213869
613.32	0.08407	0.082596132	0.001473868
613.36	0.08081	0.082596132	-0.001786132
613.4	0.08116	0.082596133	-0.001436133
613.44	0.07811	0.082596133	-0.004486133
613.48	0.08177	0.082596134	-0.000826134
613.52	0.08381	0.082596134	0.001213866
613.56	0.07699	0.082596135	-0.005606135
613.6	0.08656	0.082596135	0.003963865
613.64	0.08081	0.082596136	-0.001786136
613.68	0.08096	0.082596136	-0.001636136
613.72	0.08829	0.082596137	0.005693863
613.76	0.07821	0.082596137	-0.004386137
613.8	0.08086	0.082596138	-0.001736138
613.84	0.08483	0.082596138	0.002233862
613.88	0.08106	0.082596139	-0.001536139
613.92	0.08111	0.082596139	-0.001486139
613.96	0.08177	0.082596139	-0.000826139
614	0.08188	0.08259614	-0.00071614
614.04	0.08295	0.08259614	0.00035386
614.08	0.08575	0.082596141	0.003153859
614.12	0.07704	0.082596141	-0.005556141
614.16	0.08315	0.082596142	0.000553858
614.2	0.08208	0.082596142	-0.000516142
614.24	0.08468	0.082596143	0.002083857
614.28	0.08488	0.082596143	0.002283857
614.32	0.08213	0.082596144	-0.000466144
614.36	0.08468	0.082596144	0.002083856
614.4	0.08376	0.082596145	0.001163855
614.44	0.08086	0.082596145	-0.001736145
614.48	0.0859	0.082596146	0.003303854
614.52	0.08177	0.082596146	-0.000826146
614.56	0.08177	0.082596147	-0.000826147
614.6	0.08585	0.082596147	0.003253853
614.64	0.07704	0.082596147	-0.005556147
614.68	0.08585	0.082596148	0.003253852
614.72	0.08391	0.082596148	0.001313852
614.76	0.08386	0.082596149	0.001263851
614.8	0.08305	0.082596149	0.000453851
614.84	0.08386	0.08259615	0.00126385
614.88	0.08391	0.08259615	0.00131385
614.92	0.07984	0.082596151	-0.002756151
614.96	0.08086	0.082596151	-0.001736151
615	0.08478	0.082596152	0.002183848
615.04	0.08768	0.082596152	0.005083848
615.08	0.08295	0.082596153	0.000353847
615.12	0.08096	0.082596153	-0.001636153
615.16	0.08071	0.082596154	-0.001886154
615.2	0.08396	0.082596154	0.001363846
615.24	0.08468	0.082596155	0.002083845
615.28	0.08768	0.082596155	0.005083845
615.32	0.08671	0.082596155	0.004113845
615.36	0.07897	0.082596156	-0.003626156
615.4	0.08193	0.082596156	-0.000666156
615.44	0.08208	0.082596157	-0.000516157
615.48	0.08401	0.082596157	0.001413843
615.52	0.07826	0.082596158	-0.004336158
615.56	0.08396	0.082596158	0.001363842
615.6	0.08401	0.082596159	0.001413841
615.64	0.08111	0.082596159	-0.001486159
615.68	0.08183	0.08259616	-0.00076616
615.72	0.07811	0.08259616	-0.00448616
615.76	0.07821	0.082596161	-0.004386161
615.8	0.08198	0.082596161	-0.000616161
615.84	0.07999	0.082596162	-0.002606162
615.88	0.08824	0.082596162	0.005643838
615.92	0.08284	0.082596163	0.000243837
615.96	0.08671	0.082596163	0.004113837
616	0.08071	0.082596164	-0.001886164
616.04	0.08081	0.082596164	-0.001786164
616.08	0.0888	0.082596164	0.006203836
616.12	0.07617	0.082596165	-0.006426165
616.16	0.07984	0.082596165	-0.002756165
616.2	0.08376	0.082596166	0.001163834
616.24	0.0859	0.082596166	0.003303834
616.28	0.08473	0.082596167	0.002133833
616.32	0.08575	0.082596167	0.003153833
616.36	0.08585	0.082596168	0.003253832
616.4	0.08305	0.082596168	0.000453832
616.44	0.07714	0.082596169	-0.005456169
616.48	0.08177	0.082596169	-0.000826169
616.52	0.08865	0.08259617	0.00605383
616.56	0.08401	0.08259617	0.00141383
616.6	0.08483	0.082596171	0.002233829
616.64	0.08458	0.082596171	0.001983829
616.68	0.08687	0.082596172	0.004273828
616.72	0.08101	0.082596172	-0.001586172
616.76	0.08778	0.082596172	0.005183828
616.8	0.08101	0.082596173	-0.001586173
616.84	0.08198	0.082596173	-0.000616173
616.88	0.07729	0.082596174	-0.005306174
616.92	0.07714	0.082596174	-0.005456174
616.96	0.07755	0.082596175	-0.005046175
617	0.08478	0.082596175	0.002183825
617.04	0.08468	0.082596176	0.002083824
617.08	0.08279	0.082596176	0.000193824
617.12	0.08753	0.082596177	0.004933823
617.16	0.086	0.082596177	0.003403823
617.2	0.08671	0.082596178	0.004113822
617.24	0.08651	0.082596178	0.003913822
617.28	0.08585	0.082596179	0.003253821
617.32	0.08274	0.082596179	0.000143821
617.36	0.09074	0.08259618	0.00814382
617.4	0.0832	0.08259618	0.00060382
617.44	0.08198	0.08259618	-0.00061618
617.48	0.08585	0.082596181	0.003253819
617.52	0.0859	0.082596181	0.003303819
617.56	0.08661	0.082596182	0.004013818
617.6	0.08941	0.082596182	0.006813818
617.64	0.0885	0.082596183	0.005903817
617.68	0.08967	0.082596183	0.007073817
617.72	0.08646	0.082596184	0.003863816
617.76	0.08778	0.082596184	0.005183816
617.8	0.08783	0.082596185	0.005233815
617.84	0.08748	0.082596185	0.004883815
617.88	0.08376	0.082596186	0.001163814
617.92	0.09236	0.082596186	0.009763814
617.96	0.08585	0.082596187	0.003253813
618	0.09231	0.082596187	0.009713813
618.04	0.08936	0.082596188	0.006763812
618.08	0.09354	0.082596188	0.010943812
618.12	0.09323	0.082596189	0.010633811
618.16	0.09328	0.082596189	0.010683811
618.2	0.09354	0.082596189	0.010943811
618.24	0.09242	0.08259619	0.00982381
618.28	0.0945	0.08259619	0.01190381
618.32	0.09791	0.082596191	0.015313809
618.36	0.09532	0.082596191	0.012723809
618.4	0.09562	0.082596192	0.013023808
618.44	0.10005	0.082596192	0.017453808
618.48	0.0885	0.082596193	0.005903807
618.52	0.08941	0.082596193	0.006813807
618.56	0.09909	0.082596194	0.016493806
618.6	0.09618	0.082596194	0.013583806
618.64	0.09328	0.082596195	0.010683805
618.68	0.09873	0.082596195	0.016133805
618.72	0.09898	0.082596196	0.016383804
618.76	0.0941	0.082596196	0.011503804
618.8	0.09221	0.082596197	0.009613803
618.84	0.09043	0.082596197	0.007833803
618.88	0.09038	0.082596197	0.007783803
618.92	0.09231	0.082596198	0.009713802
618.96	0.09043	0.082596198	0.007833802
619	0.09038	0.082596199	0.007783801
619.04	0.08865	0.082596199	0.006053801
619.08	0.08962	0.0825962	0.0070238
619.12	0.09226	0.0825962	0.0096638
619.16	0.09216	0.082596201	0.009563799
619.2	0.08941	0.082596201	0.006813799
619.24	0.08778	0.082596202	0.005183798
619.28	0.08773	0.082596202	0.005133798
619.32	0.08305	0.082596203	0.000453797
619.36	0.08671	0.082596203	0.004113797
619.4	0.08488	0.082596204	0.002283796
619.44	0.08401	0.082596204	0.001413796
619.48	0.08101	0.082596205	-0.001586205
619.52	0.0917	0.082596205	0.009103795
619.56	0.08274	0.082596205	0.000143795
619.6	0.08305	0.082596206	0.000453794
619.64	0.08198	0.082596206	-0.000616206
619.68	0.08763	0.082596207	0.005033793
619.72	0.0859	0.082596207	0.003303793
619.76	0.08183	0.082596208	-0.000766208
619.8	0.08692	0.082596208	0.004323792
619.84	0.08498	0.082596209	0.002383791
619.88	0.08483	0.082596209	0.002233791
619.92	0.08865	0.08259621	0.00605379
619.96	0.0858	0.08259621	0.00320379
620	0.08768	0.082596211	0.005083789
620.04	0.07989	0.082596211	-0.002706211
620.08	0.08799	0.082596212	0.005393788
620.12	0.08284	0.082596212	0.000243788
620.16	0.083	0.082596213	0.000403787
620.2	0.08473	0.082596213	0.002133787
620.24	0.08183	0.082596213	-0.000766213
620.28	0.0857	0.082596214	0.003103786
620.32	0.08401	0.082596214	0.001413786
620.36	0.08768	0.082596215	0.005083785
620.4	0.08605	0.082596215	0.003453785
620.44	0.0859	0.082596216	0.003303784
620.48	0.08605	0.082596216	0.003453784
620.52	0.08799	0.082596217	0.005393783
620.56	0.08427	0.082596217	0.001673783
620.6	0.08473	0.082596218	0.002133782
620.64	0.086	0.082596218	0.003403782
620.68	0.07999	0.082596219	-0.002606219
620.72	0.0885	0.082596219	0.005903781
620.76	0.08839	0.08259622	0.00579378
620.8	0.08391	0.08259622	0.00131378
620.84	0.08824	0.082596221	0.005643779
620.88	0.08483	0.082596221	0.002233779
620.92	0.0831	0.082596222	0.000503778
620.96	0.08193	0.082596222	-0.000666222
621	0.08488	0.082596222	0.002283778
621.04	0.08483	0.082596223	0.002233777
621.08	0.08783	0.082596223	0.005233777
621.12	0.08682	0.082596224	0.004223776
621.16	0.0914	0.082596224	0.008803776
621.2	0.08641	0.082596225	0.003813775
621.24	0.08595	0.082596225	0.003353775
621.28	0.08371	0.082596226	0.001113774
621.32	0.08478	0.082596226	0.002183774
621.36	0.08478	0.082596227	0.002183773
621.4	0.09053	0.082596227	0.007933773
621.44	0.09338	0.082596228	0.010783772
621.48	0.0887	0.082596228	0.006103772
621.52	0.09242	0.082596229	0.009823771
621.56	0.09618	0.082596229	0.013583771
621.6	0.09354	0.08259623	0.01094377
621.64	0.09338	0.08259623	0.01078377
621.68	0.09817	0.08259623	0.01557377
621.72	0.0972	0.082596231	0.014603769
621.76	0.09898	0.082596231	0.016383769
621.8	0.1027	0.082596232	0.020103768
621.84	0.1053	0.082596232	0.022703768
621.88	0.10474	0.082596233	0.022143767
621.92	0.10464	0.082596233	0.022043767
621.96	0.10474	0.082596234	0.022143766
622	0.11319	0.082596234	0.030593766
622.04	0.11324	0.082596235	0.030643765
622.08	0.11777	0.082596235	0.035173765
622.12	0.11528	0.082596236	0.032683764
622.16	0.12011	0.082596236	0.037513764
622.2	0.11813	0.082596237	0.035533763
622.24	0.11782	0.082596237	0.035223763
622.28	0.1196	0.082596238	0.037003762
622.32	0.12419	0.082596238	0.041593762
622.36	0.12734	0.082596238	0.044743762
622.4	0.12439	0.082596239	0.041793761
622.44	0.12179	0.082596239	0.039193761
622.48	0.12531	0.08259624	0.04271376
622.52	0.12551	0.08259624	0.04291376
622.56	0.12062	0.082596241	0.038023759
622.6	0.12062	0.082596241	0.038023759
622.64	0.1224	0.082596242	0.039803758
622.68	0.12256	0.082596242	0.039963758
622.72	0.12169	0.082596243	0.039093757
622.76	0.11594	0.082596243	0.033343757
622.8	0.11808	0.082596244	0.035483756
622.84	0.11803	0.082596244	0.035433756
622.88	0.11777	0.082596245	0.035173755
622.92	0.11421	0.082596245	0.031613755
622.96	0.10896	0.082596246	0.026363754
623	0.111	0.082596246	0.028403754
623.04	0.10306	0.082596247	0.020463753
623.08	0.10367	0.082596247	0.021073753
623.12	0.10382	0.082596247	0.021223753
623.16	0.10173	0.082596248	0.019133752
623.2	0.10092	0.082596248	0.018323752
623.24	0.09914	0.082596249	0.016543751
623.28	0.09593	0.082596249	0.013333751
623.32	0.09817	0.08259625	0.01557375
623.36	0.09496	0.08259625	0.01236375
623.4	0.09511	0.082596251	0.012513749
623.44	0.09593	0.082596251	0.013333749
623.48	0.08834	0.082596252	0.005743748
623.52	0.09038	0.082596252	0.007783748
623.56	0.09084	0.082596253	0.008243747
623.6	0.08951	0.082596253	0.006913747
623.64	0.08183	0.082596254	-0.000766254
623.68	0.08855	0.082596254	0.005953746
623.72	0.08865	0.082596255	0.006053745
623.76	0.08458	0.082596255	0.001983745
623.8	0.08753	0.082596255	0.004933745
623.84	0.08391	0.082596256	0.001313744
623.88	0.08386	0.082596256	0.001263744
623.92	0.08488	0.082596257	0.002283743
623.96	0.08687	0.082596257	0.004273743
624	0.08666	0.082596258	0.004063742
624.04	0.08544	0.082596258	0.002843742
624.08	0.08401	0.082596259	0.001413741
624.12	0.08009	0.082596259	-0.002506259
624.16	0.08315	0.08259626	0.00055374
624.2	0.08687	0.08259626	0.00427374
624.24	0.09043	0.082596261	0.007833739
624.28	0.08493	0.082596261	0.002333739
624.32	0.08452	0.082596262	0.001923738
624.36	0.08911	0.082596262	0.006513738
624.4	0.08106	0.082596263	-0.001536263
624.44	0.08458	0.082596263	0.001983737
624.48	0.08463	0.082596263	0.002033737
624.52	0.08213	0.082596264	-0.000466264
624.56	0.0859	0.082596264	0.003303736
624.6	0.08585	0.082596265	0.003253735
624.64	0.08305	0.082596265	0.000453735
624.68	0.08666	0.082596266	0.004063734
624.72	0.0886	0.082596266	0.006003734
624.76	0.08773	0.082596267	0.005133733
624.8	0.08177	0.082596267	-0.000826267
624.84	0.08198	0.082596268	-0.000616268
624.88	0.08203	0.082596268	-0.000566268
624.92	0.08687	0.082596269	0.004273731
624.96	0.08478	0.082596269	0.002183731
625	0.08295	0.08259627	0.00035373
625.04	0.08407	0.08259627	0.00147373
625.08	0.08488	0.082596271	0.002283729
625.12	0.08748	0.082596271	0.004883729
625.16	0.08295	0.082596272	0.000353728
625.2	0.0832	0.082596272	0.000603728
625.24	0.08213	0.082596272	-0.000466272
625.28	0.08407	0.082596273	0.001473727
625.32	0.08488	0.082596273	0.002283727
625.36	0.08121	0.082596274	-0.001386274
625.4	0.08493	0.082596274	0.002333726
625.44	0.08177	0.082596275	-0.000826275
625.48	0.08203	0.082596275	-0.000566275
625.52	0.08549	0.082596276	0.002893724
625.56	0.08962	0.082596276	0.007023724
625.6	0.0857	0.082596277	0.003103723
625.64	0.08004	0.082596277	-0.002556277
625.68	0.08676	0.082596278	0.004163722
625.72	0.0888	0.082596278	0.006203722
625.76	0.0885	0.082596279	0.005903721
625.8	0.08743	0.082596279	0.004833721
625.84	0.08295	0.08259628	0.00035372
625.88	0.0802	0.08259628	-0.00239628
625.92	0.08289	0.08259628	0.00029372
625.96	0.08458	0.082596281	0.001983719
626	0.08284	0.082596281	0.000243719
626.04	0.08575	0.082596282	0.003153718
626.08	0.08575	0.082596282	0.003153718
626.12	0.08452	0.082596283	0.001923717
626.16	0.08758	0.082596283	0.004983717
626.2	0.08962	0.082596284	0.007023716
626.24	0.08208	0.082596284	-0.000516284
626.28	0.09058	0.082596285	0.007983715
626.32	0.08498	0.082596285	0.002383715
626.36	0.08493	0.082596286	0.002333714
626.4	0.08391	0.082596286	0.001313714
626.44	0.083	0.082596287	0.000403713
626.48	0.08483	0.082596287	0.002233713
626.52	0.08081	0.082596288	-0.001786288
626.56	0.08773	0.082596288	0.005133712
626.6	0.08575	0.082596288	0.003153712
626.64	0.08844	0.082596289	0.005843711
626.68	0.0886	0.082596289	0.006003711
626.72	0.08193	0.08259629	-0.00066629
626.76	0.08595	0.08259629	0.00335371
626.8	0.08488	0.082596291	0.002283709
626.84	0.0858	0.082596291	0.003203709
626.88	0.08763	0.082596292	0.005033708
626.92	0.09038	0.082596292	0.007783708
626.96	0.09058	0.082596293	0.007983707
627	0.08193	0.082596293	-0.000666293
627.04	0.08478	0.082596294	0.002183706
627.08	0.08564	0.082596294	0.003043706
627.12	0.08773	0.082596295	0.005133705
627.16	0.08748	0.082596295	0.004883705
627.2	0.08783	0.082596296	0.005233704
627.24	0.08768	0.082596296	0.005083704
627.28	0.08794	0.082596297	0.005343703
627.32	0.08951	0.082596297	0.006913703
627.36	0.08763	0.082596297	0.005033703
627.4	0.09135	0.082596298	0.008753702
627.44	0.0886	0.082596298	0.006003702
627.48	0.08595	0.082596299	0.003353701
627.52	0.0915	0.082596299	0.008903701
627.56	0.09119	0.0825963	0.0085937
627.6	0.09405	0.0825963	0.0114537
627.64	0.0887	0.082596301	0.006103699
627.68	0.0917	0.082596301	0.009103699
627.72	0.08967	0.082596302	0.007073698
627.76	0.0859	0.082596302	0.003303698
627.8	0.0886	0.082596303	0.006003697
627.84	0.08834	0.082596303	0.005743697
627.88	0.08773	0.082596304	0.005133696
627.92	0.0944	0.082596304	0.011803696
627.96	0.09735	0.082596305	0.014753695
628	0.0914	0.082596305	0.008803695
628.04	0.09547	0.082596305	0.012873695
628.08	0.08585	0.082596306	0.003253694
628.12	0.08585	0.082596306	0.003253694
628.16	0.09425	0.082596307	0.011653693
628.2	0.09445	0.082596307	0.011853693
628.24	0.09522	0.082596308	0.012623692
628.28	0.09547	0.082596308	0.012873692
628.32	0.09562	0.082596309	0.013023691
628.36	0.0942	0.082596309	0.011603691
628.4	0.09735	0.08259631	0.01475369
628.44	0.0971	0.08259631	0.01450369
628.48	0.09527	0.082596311	0.012673689
628.52	0.10092	0.082596311	0.018323689
628.56	0.09909	0.082596312	0.016493688
628.6	0.09893	0.082596312	0.016333688
628.64	0.09348	0.082596313	0.010883687
628.68	0.09786	0.082596313	0.015263687
628.72	0.09786	0.082596313	0.015263687
628.76	0.09231	0.082596314	0.009713686
628.8	0.09547	0.082596314	0.012873686
628.84	0.09405	0.082596315	0.011453685
628.88	0.10092	0.082596315	0.018323685
628.92	0.09068	0.082596316	0.008083684
628.96	0.09527	0.082596316	0.012673684
629	0.09231	0.082596317	0.009713683
629.04	0.09211	0.082596317	0.009513683
629.08	0.09527	0.082596318	0.012673682
629.12	0.09252	0.082596318	0.009923682
629.16	0.09415	0.082596319	0.011553681
629.2	0.08931	0.082596319	0.006713681
629.24	0.09211	0.08259632	0.00951368
629.28	0.09074	0.08259632	0.00814368
629.32	0.09038	0.082596321	0.007783679
629.36	0.09043	0.082596321	0.007833679
629.4	0.0857	0.082596322	0.003103678
629.44	0.0886	0.082596322	0.006003678
629.48	0.0885	0.082596322	0.005903678
629.52	0.08407	0.082596323	0.001473677
629.56	0.08585	0.082596323	0.003253677
629.6	0.0858	0.082596324	0.003203676
629.64	0.08498	0.082596324	0.002383676
629.68	0.08646	0.082596325	0.003863675
629.72	0.08376	0.082596325	0.001163675
629.76	0.08585	0.082596326	0.003253674
629.8	0.09018	0.082596326	0.007583674
629.84	0.08676	0.082596327	0.004163673
629.88	0.0803	0.082596327	-0.002296327
629.92	0.0803	0.082596328	-0.002296328
629.96	0.07841	0.082596328	-0.004186328
630	0.08483	0.082596329	0.002233671
630.04	0.07816	0.082596329	-0.004436329
630.08	0.07908	0.08259633	-0.00351633
630.12	0.08366	0.08259633	0.00106367
630.16	0.08381	0.08259633	0.00121367
630.2	0.08407	0.082596331	0.001473669
630.24	0.08488	0.082596331	0.002283669
630.28	0.08177	0.082596332	-0.000826332
630.32	0.08096	0.082596332	-0.001636332
630.36	0.08198	0.082596333	-0.000616333
630.4	0.08401	0.082596333	0.001413667
630.44	0.0885	0.082596334	0.005903666
630.48	0.0887	0.082596334	0.006103666
630.52	0.08478	0.082596335	0.002183665
630.56	0.08605	0.082596335	0.003453665
630.6	0.08101	0.082596336	-0.001586336
630.64	0.08101	0.082596336	-0.001586336
630.68	0.08193	0.082596337	-0.000666337
630.72	0.083	0.082596337	0.000403663
630.76	0.07938	0.082596338	-0.003216338
630.8	0.07933	0.082596338	-0.003266338
630.84	0.08488	0.082596338	0.002283662
630.88	0.08305	0.082596339	0.000453661
630.92	0.08396	0.082596339	0.001363661
630.96	0.0803	0.08259634	-0.00229634
631	0.07933	0.08259634	-0.00326634
631.04	0.08218	0.082596341	-0.000416341
631.08	0.08177	0.082596341	-0.000826341
631.12	0.07821	0.082596342	-0.004386342
631.16	0.08071	0.082596342	-0.001886342
631.2	0.08106	0.082596343	-0.001536343
631.24	0.08009	0.082596343	-0.002506343
631.28	0.08391	0.082596344	0.001313656
631.32	0.08478	0.082596344	0.002183656
631.36	0.08208	0.082596345	-0.000516345
631.4	0.08177	0.082596345	-0.000826345
631.44	0.08427	0.082596346	0.001673654
631.48	0.08009	0.082596346	-0.002506346
631.52	0.08778	0.082596347	0.005183653
631.56	0.09277	0.082596347	0.010173653
631.6	0.08946	0.082596347	0.006863653
631.64	0.0916	0.082596348	0.009003652
631.68	0.09119	0.082596348	0.008593652
631.72	0.08962	0.082596349	0.007023651
631.76	0.09613	0.082596349	0.013533651
631.8	0.0942	0.08259635	0.01160365
631.84	0.09201	0.08259635	0.00941365
631.88	0.09695	0.082596351	0.014353649
631.92	0.10443	0.082596351	0.021833649
631.96	0.10484	0.082596352	0.022243648
632	0.09629	0.082596352	0.013693648
632.04	0.0944	0.082596353	0.011803647
632.08	0.09807	0.082596353	0.015473647
632.12	0.10453	0.082596354	0.021933646
632.16	0.10749	0.082596354	0.024893646
632.2	0.10545	0.082596355	0.022853645
632.24	0.10621	0.082596355	0.023613645
632.28	0.10626	0.082596355	0.023663645
632.32	0.10265	0.082596356	0.020053644
632.36	0.1027	0.082596356	0.020103644
632.4	0.10637	0.082596357	0.023773643
632.44	0.10285	0.082596357	0.020253643
632.48	0.10107	0.082596358	0.018473642
632.52	0.11105	0.082596358	0.028453642
632.56	0.1111	0.082596359	0.028503641
632.6	0.0999	0.082596359	0.017303641
632.64	0.10453	0.08259636	0.02193364
632.68	0.10647	0.08259636	0.02387364
632.72	0.10367	0.082596361	0.021073639
632.76	0.10728	0.082596361	0.024683639
632.8	0.10662	0.082596362	0.024023638
632.84	0.10626	0.082596362	0.023663638
632.88	0.10178	0.082596363	0.019183637
632.92	0.10189	0.082596363	0.019293637
632.96	0.09898	0.082596363	0.016383637
633	0.09532	0.082596364	0.012723636
633.04	0.0915	0.082596364	0.008903636
633.08	0.09802	0.082596365	0.015423635
633.12	0.10097	0.082596365	0.018373635
633.16	0.10107	0.082596366	0.018473634
633.2	0.09221	0.082596366	0.009613634
633.24	0.09593	0.082596367	0.013333633
633.28	0.0971	0.082596367	0.014503633
633.32	0.08951	0.082596368	0.006913632
633.36	0.08773	0.082596368	0.005133632
633.4	0.09608	0.082596369	0.013483631
633.44	0.09629	0.082596369	0.013693631
633.48	0.08778	0.08259637	0.00518363
633.52	0.08758	0.08259637	0.00498363
633.56	0.08682	0.082596371	0.004223629
633.6	0.08972	0.082596371	0.007123629
633.64	0.08396	0.082596372	0.001363628
633.68	0.08687	0.082596372	0.004273628
633.72	0.08193	0.082596372	-0.000666372
633.76	0.08218	0.082596373	-0.000416373
633.8	0.0858	0.082596373	0.003203627
633.84	0.083	0.082596374	0.000403626
633.88	0.08284	0.082596374	0.000243626
633.92	0.08009	0.082596375	-0.002506375
633.96	0.08295	0.082596375	0.000353625
634	0.0859	0.082596376	0.003303624
634.04	0.0857	0.082596376	0.003103624
634.08	0.08396	0.082596377	0.001363623
634.12	0.08004	0.082596377	-0.002556377
634.16	0.08396	0.082596378	0.001363622
634.2	0.083	0.082596378	0.000403622
634.24	0.08605	0.082596379	0.003453621
634.28	0.08575	0.082596379	0.003153621
634.32	0.08575	0.08259638	0.00315362
634.36	0.08778	0.08259638	0.00518362
634.4	0.07816	0.08259638	-0.00443638
634.44	0.08376	0.082596381	0.001163619
634.48	0.08015	0.082596381	-0.002446381
634.52	0.08335	0.082596382	0.000753618
634.56	0.08172	0.082596382	-0.000876382
634.6	0.086	0.082596383	0.003403617
634.64	0.0859	0.082596383	0.003303617
634.68	0.07831	0.082596384	-0.004286384
634.72	0.08213	0.082596384	-0.000466384
634.76	0.08401	0.082596385	0.001413615
634.8	0.08284	0.082596385	0.000243615
634.84	0.08101	0.082596386	-0.001586386
634.88	0.08101	0.082596386	-0.001586386
634.92	0.08116	0.082596387	-0.001436387
634.96	0.08458	0.082596387	0.001983613
635	0.08188	0.082596388	-0.000716388
635.04	0.08096	0.082596388	-0.001636388
635.08	0.0858	0.082596388	0.003203612
635.12	0.08386	0.082596389	0.001263611
635.16	0.08284	0.082596389	0.000243611
635.2	0.083	0.08259639	0.00040361
635.24	0.08096	0.08259639	-0.00163639
635.28	0.08473	0.082596391	0.002133609
635.32	0.08391	0.082596391	0.001313609
635.36	0.08101	0.082596392	-0.001586392
635.4	0.08468	0.082596392	0.002083608
635.44	0.0831	0.082596393	0.000503607
635.48	0.08473	0.082596393	0.002133607
635.52	0.08463	0.082596394	0.002033606
635.56	0.08595	0.082596394	0.003353606
635.6	0.07841	0.082596395	-0.004186395
635.64	0.08824	0.082596395	0.005643605
635.68	0.08407	0.082596396	0.001473604
635.72	0.08193	0.082596396	-0.000666396
635.76	0.08763	0.082596397	0.005033603
635.8	0.08763	0.082596397	0.005033603
635.84	0.08009	0.082596397	-0.002506397
635.88	0.08478	0.082596398	0.002183602
635.92	0.08188	0.082596398	-0.000716398
635.96	0.08585	0.082596399	0.003253601
636	0.08972	0.082596399	0.007123601
636.04	0.08162	0.0825964	-0.0009764
636.08	0.08458	0.0825964	0.0019836
636.12	0.08463	0.082596401	0.002033599
636.16	0.08753	0.082596401	0.004933599
636.2	0.08417	0.082596402	0.001573598
636.24	0.08203	0.082596402	-0.000566402
636.28	0.08086	0.082596403	-0.001736403
636.32	0.07984	0.082596403	-0.002756403
636.36	0.08656	0.082596404	0.003963596
636.4	0.08661	0.082596404	0.004013596
636.44	0.07903	0.082596405	-0.003566405
636.48	0.0857	0.082596405	0.003103595
636.52	0.08004	0.082596405	-0.002556405
636.56	0.07999	0.082596406	-0.002606406
636.6	0.08295	0.082596406	0.000353594
636.64	0.08371	0.082596407	0.001113593
636.68	0.08391	0.082596407	0.001313593
636.72	0.08417	0.082596408	0.001573592
636.76	0.07735	0.082596408	-0.005246408
636.8	0.08407	0.082596409	0.001473591
636.84	0.08463	0.082596409	0.002033591
636.88	0.09252	0.08259641	0.00992359
636.92	0.08386	0.08259641	0.00126359
636.96	0.08575	0.082596411	0.003153589
637	0.08575	0.082596411	0.003153589
637.04	0.0862	0.082596412	0.003603588
637.08	0.0806	0.082596412	-0.001996412
637.12	0.08478	0.082596413	0.002183587
637.16	0.08188	0.082596413	-0.000716413
637.2	0.08295	0.082596413	0.000353587
637.24	0.08463	0.082596414	0.002033586
637.28	0.08478	0.082596414	0.002183586
637.32	0.08396	0.082596415	0.001363585
637.36	0.08381	0.082596415	0.001213585
637.4	0.08289	0.082596416	0.000293584
637.44	0.08493	0.082596416	0.002333584
637.48	0.08167	0.082596417	-0.000926417
637.52	0.08666	0.082596417	0.004063583
637.56	0.08646	0.082596418	0.003863582
637.6	0.08203	0.082596418	-0.000566418
637.64	0.0858	0.082596419	0.003203581
637.68	0.08676	0.082596419	0.004163581
637.72	0.07928	0.08259642	-0.00331642
637.76	0.086	0.08259642	0.00340358
637.8	0.083	0.082596421	0.000403579
637.84	0.08412	0.082596421	0.001523579
637.88	0.08386	0.082596421	0.001263579
637.92	0.08177	0.082596422	-0.000826422
637.96	0.08794	0.082596422	0.005343578
638	0.08783	0.082596423	0.005233577
638.04	0.08646	0.082596423	0.003863577
638.08	0.08458	0.082596424	0.001983576
638.12	0.08289	0.082596424	0.000293576
638.16	0.083	0.082596425	0.000403575
638.2	0.08468	0.082596425	0.002083575
638.24	0.08025	0.082596426	-0.002346426
638.28	0.08778	0.082596426	0.005183574
638.32	0.08371	0.082596427	0.001113573
638.36	0.0832	0.082596427	0.000603573
638.4	0.08753	0.082596428	0.004933572
638.44	0.08671	0.082596428	0.004113572
638.48	0.08656	0.082596429	0.003963571
638.52	0.08458	0.082596429	0.001983571
638.56	0.07994	0.08259643	-0.00265643
638.6	0.08172	0.08259643	-0.00087643
638.64	0.08687	0.08259643	0.00427357
638.68	0.0885	0.082596431	0.005903569
638.72	0.08463	0.082596431	0.002033569
638.76	0.08503	0.082596432	0.002433568
638.8	0.08468	0.082596432	0.002083568
638.84	0.08483	0.082596433	0.002233567
638.88	0.08391	0.082596433	0.001313567
638.92	0.08193	0.082596434	-0.000666434
638.96	0.08376	0.082596434	0.001163566
639	0.07826	0.082596435	-0.004336435
639.04	0.07775	0.082596435	-0.004846435
639.08	0.08468	0.082596436	0.002083564
639.12	0.08473	0.082596436	0.002133564
639.16	0.08788	0.082596437	0.005283563
639.2	0.09043	0.082596437	0.007833563
639.24	0.08666	0.082596438	0.004063562
639.28	0.08193	0.082596438	-0.000666438
639.32	0.08396	0.082596438	0.001363562
639.36	0.08422	0.082596439	0.001623561
639.4	0.083	0.082596439	0.000403561
639.44	0.08865	0.08259644	0.00605356
639.48	0.08478	0.08259644	0.00218356
639.52	0.08585	0.082596441	0.003253559
639.56	0.08951	0.082596441	0.006913559
639.6	0.08478	0.082596442	0.002183558
639.64	0.08483	0.082596442	0.002233558
639.68	0.08839	0.082596443	0.005793557
639.72	0.08773	0.082596443	0.005133557
639.76	0.08783	0.082596444	0.005233556
639.8	0.08676	0.082596444	0.004163556
639.84	0.09063	0.082596445	0.008033555
639.88	0.08748	0.082596445	0.004883555
639.92	0.08758	0.082596446	0.004983554
639.96	0.08468	0.082596446	0.002083554