	m	t	
f	1.17547E-08	0.0912729	
			
			
X in nm	Y Signal 	f	y-f
625.04	0.08956	0.091280247	-0.001720247
625.08	0.09898	0.091280248	0.007699752
625.12	0.09975	0.091280248	0.008469752
625.16	0.09313	0.091280249	0.001849751
625.2	0.09033	0.091280249	-0.000950249
625.24	0.09593	0.09128025	0.00464975
625.28	0.09623	0.09128025	0.00494975
625.32	0.09613	0.09128025	0.00484975
625.36	0.09231	0.091280251	0.001029749
625.4	0.09226	0.091280251	0.000979749
625.44	0.0971	0.091280252	0.005819748
625.48	0.097	0.091280252	0.005719748
625.52	0.09328	0.091280253	0.001999747
625.56	0.09313	0.091280253	0.001849747
625.6	0.09552	0.091280254	0.004239746
625.64	0.09145	0.091280254	0.000169746
625.68	0.09048	0.091280255	-0.000800255
625.72	0.09405	0.091280255	0.002769745
625.76	0.0943	0.091280256	0.003019744
625.8	0.09048	0.091280256	-0.000800256
625.84	0.09033	0.091280257	-0.000950257
625.88	0.09914	0.091280257	0.007859743
625.92	0.09048	0.091280258	-0.000800258
625.96	0.09634	0.091280258	0.005059742
626	0.09155	0.091280258	0.000269742
626.04	0.09618	0.091280259	0.004899741
626.08	0.09598	0.091280259	0.004699741
626.12	0.09038	0.09128026	-0.00090026
626.16	0.09058	0.09128026	-0.00070026
626.2	0.09038	0.091280261	-0.000900261
626.24	0.09328	0.091280261	0.001999739
626.28	0.09211	0.091280262	0.000829738
626.32	0.0942	0.091280262	0.002919738
626.36	0.09318	0.091280263	0.001899737
626.4	0.09333	0.091280263	0.002049737
626.44	0.09328	0.091280264	0.001999736
626.48	0.09043	0.091280264	-0.000850264
626.52	0.09715	0.091280265	0.005869735
626.56	0.09308	0.091280265	0.001799735
626.6	0.09623	0.091280265	0.004949735
626.64	0.09242	0.091280266	0.001139734
626.68	0.09242	0.091280266	0.001139734
626.72	0.09242	0.091280267	0.001139733
626.76	0.09206	0.091280267	0.000779733
626.8	0.09639	0.091280268	0.005109732
626.84	0.09527	0.091280268	0.003989732
626.88	0.09786	0.091280269	0.006579731
626.92	0.09517	0.091280269	0.003889731
626.96	0.09496	0.09128027	0.00367973
627	0.09425	0.09128027	0.00296973
627.04	0.0941	0.091280271	0.002819729
627.08	0.09323	0.091280271	0.001949729
627.12	0.09333	0.091280272	0.002049728
627.16	0.09247	0.091280272	0.001189728
627.2	0.09598	0.091280273	0.004699727
627.24	0.09598	0.091280273	0.004699727
627.28	0.10189	0.091280273	0.010609727
627.32	0.10204	0.091280274	0.010759726
627.36	0.09903	0.091280274	0.007749726
627.4	0.09231	0.091280275	0.001029725
627.44	0.09781	0.091280275	0.006529725
627.48	0.09527	0.091280276	0.003989724
627.52	0.10387	0.091280276	0.012589724
627.56	0.09817	0.091280277	0.006889723
627.6	0.09929	0.091280277	0.008009723
627.64	0.09924	0.091280278	0.007959722
627.68	0.09985	0.091280278	0.008569722
627.72	0.09786	0.091280279	0.006579721
627.76	0.09812	0.091280279	0.006839721
627.8	0.10637	0.09128028	0.01508972
627.84	0.09786	0.09128028	0.00657972
627.88	0.10469	0.091280281	0.013409719
627.92	0.10474	0.091280281	0.013459719
627.96	0.09715	0.091280281	0.005869719
628	0.10738	0.091280282	0.016099718
628.04	0.1028	0.091280282	0.011519718
628.08	0.10382	0.091280283	0.012539717
628.12	0.10917	0.091280283	0.017889717
628.16	0.10346	0.091280284	0.012179716
628.2	0.10367	0.091280284	0.012389716
628.24	0.11054	0.091280285	0.019259715
628.28	0.10937	0.091280285	0.018089715
628.32	0.10652	0.091280286	0.015239714
628.36	0.1055	0.091280286	0.014219714
628.4	0.114	0.091280287	0.022719713
628.44	0.11085	0.091280287	0.019569713
628.48	0.1167	0.091280288	0.025419712
628.52	0.11685	0.091280288	0.025569712
628.56	0.11095	0.091280289	0.019669711
628.6	0.10861	0.091280289	0.017329711
628.64	0.11772	0.091280289	0.026439711
628.68	0.11034	0.09128029	0.01905971
628.72	0.11329	0.09128029	0.02200971
628.76	0.10382	0.091280291	0.012539709
628.8	0.10377	0.091280291	0.012489709
628.84	0.10382	0.091280292	0.012539708
628.88	0.1112	0.091280292	0.019919708
628.92	0.11049	0.091280293	0.019209707
628.96	0.10922	0.091280293	0.017939707
629	0.10565	0.091280294	0.014369706
629.04	0.10912	0.091280294	0.017839706
629.08	0.10112	0.091280295	0.009839705
629.12	0.10077	0.091280295	0.009489705
629.16	0.10092	0.091280296	0.009639704
629.2	0.09674	0.091280296	0.005459704
629.24	0.10372	0.091280297	0.012439703
629.28	0.09888	0.091280297	0.007599703
629.32	0.10077	0.091280297	0.009489703
629.36	0.10183	0.091280298	0.010549702
629.4	0.10178	0.091280298	0.010499702
629.44	0.09629	0.091280299	0.005009701
629.48	0.08916	0.091280299	-0.002120299
629.52	0.09338	0.0912803	0.0020997
629.56	0.09797	0.0912803	0.0066897
629.6	0.09547	0.091280301	0.004189699
629.64	0.0944	0.091280301	0.003119699
629.68	0.09415	0.091280302	0.002869698
629.72	0.0914	0.091280302	0.000119698
629.76	0.09435	0.091280303	0.003069697
629.8	0.0886	0.091280303	-0.002680303
629.84	0.09542	0.091280304	0.004139696
629.88	0.0915	0.091280304	0.000219696
629.92	0.09517	0.091280305	0.003889695
629.96	0.08951	0.091280305	-0.001770305
630	0.08931	0.091280305	-0.001970305
630.04	0.09023	0.091280306	-0.001050306
630.08	0.08956	0.091280306	-0.001720306
630.12	0.08666	0.091280307	-0.004620307
630.16	0.08946	0.091280307	-0.001820307
630.2	0.08778	0.091280308	-0.003500308
630.24	0.08692	0.091280308	-0.004360308
630.28	0.08656	0.091280309	-0.004720309
630.32	0.08865	0.091280309	-0.002630309
630.36	0.09231	0.09128031	0.00102969
630.4	0.09012	0.09128031	-0.00116031
630.44	0.09038	0.091280311	-0.000900311
630.48	0.0886	0.091280311	-0.002680311
630.52	0.08839	0.091280312	-0.002890312
630.56	0.08844	0.091280312	-0.002840312
630.6	0.08951	0.091280313	-0.001770313
630.64	0.08855	0.091280313	-0.002730313
630.68	0.09043	0.091280313	-0.000850313
630.72	0.08687	0.091280314	-0.004410314
630.76	0.08875	0.091280314	-0.002530314
630.8	0.0886	0.091280315	-0.002680315
630.84	0.09216	0.091280315	0.000879685
630.88	0.09262	0.091280316	0.001339684
630.92	0.09415	0.091280316	0.002869684
630.96	0.09028	0.091280317	-0.001000317
631	0.08478	0.091280317	-0.006500317
631.04	0.08641	0.091280318	-0.004870318
631.08	0.09328	0.091280318	0.001999682
631.12	0.09354	0.091280319	0.002259681
631.16	0.09338	0.091280319	0.002099681
631.2	0.09053	0.09128032	-0.00075032
631.24	0.08865	0.09128032	-0.00263032
631.28	0.09807	0.091280321	0.006789679
631.32	0.1029	0.091280321	0.011619679
631.36	0.10764	0.091280321	0.016359679
631.4	0.11309	0.091280322	0.021809678
631.44	0.11604	0.091280322	0.024759678
631.48	0.11614	0.091280323	0.024859677
631.52	0.12429	0.091280323	0.033009677
631.56	0.12826	0.091280324	0.036979676
631.6	0.13004	0.091280324	0.038759676
631.64	0.13111	0.091280325	0.039829675
631.68	0.13768	0.091280325	0.046399675
631.72	0.136	0.091280326	0.044719674
631.76	0.1361	0.091280326	0.044819674
631.8	0.14888	0.091280327	0.057599673
631.84	0.1472	0.091280327	0.055919673
631.88	0.15361	0.091280328	0.062329672
631.92	0.15662	0.091280328	0.065339672
631.96	0.15759	0.091280329	0.066309671
632	0.16222	0.091280329	0.070939671
632.04	0.16191	0.091280329	0.070629671
632.08	0.16904	0.09128033	0.07775967
632.12	0.17123	0.09128033	0.07994967
632.16	0.17245	0.091280331	0.081169669
632.2	0.17149	0.091280331	0.080209669
632.24	0.16711	0.091280332	0.075829668
632.28	0.17271	0.091280332	0.081429668
632.32	0.17337	0.091280333	0.082089667
632.36	0.17352	0.091280333	0.082239667
632.4	0.16721	0.091280334	0.075929666
632.44	0.17133	0.091280334	0.080049666
632.48	0.17164	0.091280335	0.080359665
632.52	0.1669	0.091280335	0.075619665
632.56	0.16588	0.091280336	0.074599664
632.6	0.1641	0.091280336	0.072819664
632.64	0.16405	0.091280336	0.072769664
632.68	0.15591	0.091280337	0.064629663
632.72	0.15545	0.091280337	0.064169663
632.76	0.15107	0.091280338	0.059789662
632.8	0.15081	0.091280338	0.059529662
632.84	0.13931	0.091280339	0.048029661
632.88	0.14516	0.091280339	0.053879661
632.92	0.14511	0.09128034	0.05382966
632.96	0.13585	0.09128034	0.04456966
633	0.13834	0.091280341	0.047059659
633.04	0.13213	0.091280341	0.040849659
633.08	0.12057	0.091280342	0.029289658
633.12	0.13116	0.091280342	0.039879658
633.16	0.12907	0.091280343	0.037789657
633.2	0.12261	0.091280343	0.031329657
633.24	0.12251	0.091280344	0.031229656
633.28	0.12159	0.091280344	0.030309656
633.32	0.11212	0.091280344	0.020839656
633.36	0.11691	0.091280345	0.025629655
633.4	0.10652	0.091280345	0.015239655
633.44	0.1057	0.091280346	0.014419654
633.48	0.1083	0.091280346	0.017019654
633.52	0.1083	0.091280347	0.017019653
633.56	0.10362	0.091280347	0.012339653
633.6	0.09985	0.091280348	0.008569652
633.64	0.09348	0.091280348	0.002199652
633.68	0.09221	0.091280349	0.000929651
633.72	0.08773	0.091280349	-0.003550349
633.76	0.08646	0.09128035	-0.00482035
633.8	0.09226	0.09128035	0.00097965
633.84	0.09236	0.091280351	0.001079649
633.88	0.0887	0.091280351	-0.002580351
633.92	0.08676	0.091280352	-0.004520352
633.96	0.08941	0.091280352	-0.001870352
634	0.09496	0.091280352	0.003679648
634.04	0.08763	0.091280353	-0.003650353
634.08	0.08829	0.091280353	-0.002990353
634.12	0.08834	0.091280354	-0.002940354
634.16	0.08768	0.091280354	-0.003600354
634.2	0.08844	0.091280355	-0.002840355
634.24	0.08931	0.091280355	-0.001970355
634.28	0.08213	0.091280356	-0.009150356
634.32	0.08407	0.091280356	-0.007210356
634.36	0.08086	0.091280357	-0.010420357
634.4	0.08096	0.091280357	-0.010320357
634.44	0.08967	0.091280358	-0.001610358
634.48	0.08682	0.091280358	-0.004460358
634.52	0.08855	0.091280359	-0.002730359
634.56	0.09298	0.091280359	0.001699641
634.6	0.08748	0.09128036	-0.00380036
634.64	0.09206	0.09128036	0.00077964
634.68	0.08585	0.09128036	-0.00543036
634.72	0.0858	0.091280361	-0.005480361
634.76	0.08951	0.091280361	-0.001770361
634.8	0.08661	0.091280362	-0.004670362
634.84	0.08743	0.091280362	-0.003850362
634.88	0.0944	0.091280363	0.003119637
634.92	0.08844	0.091280363	-0.002840363
634.96	0.0886	0.091280364	-0.002680364
635	0.0887	0.091280364	-0.002580364
635.04	0.08763	0.091280365	-0.003650365
635.08	0.08676	0.091280365	-0.004520365
635.12	0.08794	0.091280366	-0.003340366
635.16	0.08839	0.091280366	-0.002890366
635.2	0.08676	0.091280367	-0.004520367
635.24	0.09155	0.091280367	0.000269633
635.28	0.0914	0.091280368	0.000119632
635.32	0.0858	0.091280368	-0.005480368
635.36	0.08844	0.091280368	-0.002840368
635.4	0.0887	0.091280369	-0.002580369
635.44	0.09348	0.091280369	0.002199631
635.48	0.09043	0.09128037	-0.00085037
635.52	0.08788	0.09128037	-0.00340037
635.56	0.08682	0.091280371	-0.004460371
635.6	0.08692	0.091280371	-0.004360371
635.64	0.08376	0.091280372	-0.007520372
635.68	0.08778	0.091280372	-0.003500372
635.72	0.09023	0.091280373	-0.001050373
635.76	0.09124	0.091280373	-4.03732E-05
635.8	0.08753	0.091280374	-0.003750374
635.84	0.09043	0.091280374	-0.000850374
635.88	0.09038	0.091280375	-0.000900375
635.92	0.09053	0.091280375	-0.000750375
635.96	0.08386	0.091280376	-0.007420376
636	0.08941	0.091280376	-0.001870376
636.04	0.08778	0.091280376	-0.003500376
636.08	0.09145	0.091280377	0.000169623
636.12	0.09236	0.091280377	0.001079623
636.16	0.09445	0.091280378	0.003169622
636.2	0.0942	0.091280378	0.002919622
636.24	0.08758	0.091280379	-0.003700379
636.28	0.09216	0.091280379	0.000879621
636.32	0.08682	0.09128038	-0.00446038
636.36	0.08483	0.09128038	-0.00645038
636.4	0.08712	0.091280381	-0.004160381
636.44	0.08956	0.091280381	-0.001720381
636.48	0.08951	0.091280382	-0.001770382
636.52	0.08778	0.091280382	-0.003500382
636.56	0.08962	0.091280383	-0.001660383
636.6	0.08177	0.091280383	-0.009510383
636.64	0.08855	0.091280384	-0.002730384
636.68	0.08732	0.091280384	-0.003960384
636.72	0.09028	0.091280384	-0.001000384
636.76	0.09038	0.091280385	-0.000900385
636.8	0.09343	0.091280385	0.002149615
636.84	0.08656	0.091280386	-0.004720386
636.88	0.09338	0.091280386	0.002099614
636.92	0.08478	0.091280387	-0.006500387
636.96	0.0888	0.091280387	-0.002480387
637	0.08844	0.091280388	-0.002840388
637.04	0.08773	0.091280388	-0.003550388
637.08	0.08778	0.091280389	-0.003500389
637.12	0.08468	0.091280389	-0.006600389
637.16	0.08773	0.09128039	-0.00355039
637.2	0.08763	0.09128039	-0.00365039
637.24	0.08391	0.091280391	-0.007370391
637.28	0.09343	0.091280391	0.002149609
637.32	0.08575	0.091280392	-0.005530392
637.36	0.08585	0.091280392	-0.005430392
637.4	0.08834	0.091280392	-0.002940392
637.44	0.0914	0.091280393	0.000119607
637.48	0.09206	0.091280393	0.000779607
637.52	0.09313	0.091280394	0.001849606
637.56	0.08962	0.091280394	-0.001660394
637.6	0.08865	0.091280395	-0.002630395
637.64	0.08839	0.091280395	-0.002890395
637.68	0.08967	0.091280396	-0.001610396
637.72	0.09318	0.091280396	0.001899604
637.76	0.08977	0.091280397	-0.001510397
637.8	0.08778	0.091280397	-0.003500397
637.84	0.08671	0.091280398	-0.004570398
637.88	0.08839	0.091280398	-0.002890398
637.92	0.08875	0.091280399	-0.002530399
637.96	0.08824	0.091280399	-0.003040399
638	0.08829	0.091280399	-0.002990399
638.04	0.08651	0.0912804	-0.0047704
638.08	0.08778	0.0912804	-0.0035004
638.12	0.08682	0.091280401	-0.004460401
638.16	0.09242	0.091280401	0.001139599
638.2	0.09348	0.091280402	0.002199598
638.24	0.09323	0.091280402	0.001949598
638.28	0.09023	0.091280403	-0.001050403
638.32	0.09715	0.091280403	0.005869597
638.36	0.09053	0.091280404	-0.000750404
638.4	0.09354	0.091280404	0.002259596
638.44	0.08773	0.091280405	-0.003550405
638.48	0.08855	0.091280405	-0.002730405
638.52	0.09155	0.091280406	0.000269594
638.56	0.09165	0.091280406	0.000369594
638.6	0.09048	0.091280407	-0.000800407
638.64	0.08687	0.091280407	-0.004410407
638.68	0.08951	0.091280407	-0.001770407
638.72	0.09236	0.091280408	0.001079592
638.76	0.09797	0.091280408	0.006689592
638.8	0.0886	0.091280409	-0.002680409
638.84	0.08829	0.091280409	-0.002990409
638.88	0.09048	0.09128041	-0.00080041
638.92	0.09206	0.09128041	0.00077959
638.96	0.08753	0.091280411	-0.003750411
639	0.09058	0.091280411	-0.000700411
639.04	0.09802	0.091280412	0.006739588
639.08	0.09221	0.091280412	0.000929588
639.12	0.09226	0.091280413	0.000979587
639.16	0.09028	0.091280413	-0.001000413
639.2	0.09629	0.091280414	0.005009586
639.24	0.09802	0.091280414	0.006739586
639.28	0.09776	0.091280415	0.006479585
639.32	0.09608	0.091280415	0.004799585
639.36	0.09491	0.091280415	0.003629585
639.4	0.09817	0.091280416	0.006889584
639.44	0.09807	0.091280416	0.006789584
639.48	0.09522	0.091280417	0.003939583
639.52	0.10209	0.091280417	0.010809583
639.56	0.09914	0.091280418	0.007859582
639.6	0.09354	0.091280418	0.002259582
639.64	0.0917	0.091280419	0.000419581
639.68	0.09868	0.091280419	0.007399581
639.72	0.09919	0.09128042	0.00790958
639.76	0.09318	0.09128042	0.00189958
639.8	0.09868	0.091280421	0.007399579
639.84	0.09685	0.091280421	0.005569579
639.88	0.10092	0.091280422	0.009639578
639.92	0.0971	0.091280422	0.005819578
639.96	0.09786	0.091280423	0.006579577
640	0.09786	0.091280423	0.006579577
640.04	0.10352	0.091280423	0.012239577
640.08	0.10458	0.091280424	0.013299576
640.12	0.10387	0.091280424	0.012589576
640.16	0.0945	0.091280425	0.003219575
640.2	0.0971	0.091280425	0.005819575
640.24	0.10357	0.091280426	0.012289574
640.28	0.10087	0.091280426	0.009589574
640.32	0.10071	0.091280427	0.009429573
640.36	0.10061	0.091280427	0.009329573
640.4	0.1	0.091280428	0.008719572
640.44	0.1	0.091280428	0.008719572
640.48	0.09909	0.091280429	0.007809571
640.52	0.1028	0.091280429	0.011519571
640.56	0.10005	0.09128043	0.00876957
640.6	0.1001	0.09128043	0.00881957
640.64	0.09547	0.091280431	0.004189569
640.68	0.09873	0.091280431	0.007449569
640.72	0.0972	0.091280431	0.005919569
640.76	0.09542	0.091280432	0.004139568
640.8	0.09786	0.091280432	0.006579568
640.84	0.09435	0.091280433	0.003069567
640.88	0.09786	0.091280433	0.006579567
640.92	0.09797	0.091280434	0.006689566
640.96	0.09415	0.091280434	0.002869566
641	0.09618	0.091280435	0.004899565
641.04	0.09995	0.091280435	0.008669565
641.08	0.09517	0.091280436	0.003889564
641.12	0.10194	0.091280436	0.010659564
641.16	0.09629	0.091280437	0.005009563
641.2	0.09593	0.091280437	0.004649563
641.24	0.09522	0.091280438	0.003939562
641.28	0.09435	0.091280438	0.003069562
641.32	0.10092	0.091280439	0.009639561
641.36	0.09221	0.091280439	0.000929561
641.4	0.09822	0.091280439	0.006939561
641.44	0.09802	0.09128044	0.00673956
641.48	0.09797	0.09128044	0.00668956
641.52	0.10545	0.091280441	0.014169559
641.56	0.09914	0.091280441	0.007859559
641.6	0.09822	0.091280442	0.006939558
641.64	0.09914	0.091280442	0.007859558
641.68	0.1028	0.091280443	0.011519557
641.72	0.10097	0.091280443	0.009689557
641.76	0.1028	0.091280444	0.011519556
641.8	0.10265	0.091280444	0.011369556
641.84	0.09685	0.091280445	0.005569555
641.88	0.10545	0.091280445	0.014169555
641.92	0.10387	0.091280446	0.012589554
641.96	0.10642	0.091280446	0.015139554
642	0.10749	0.091280447	0.016209553
642.04	0.10733	0.091280447	0.016049553
642.08	0.10764	0.091280447	0.016359553
642.12	0.11874	0.091280448	0.027459552
642.16	0.10947	0.091280448	0.018189552
642.2	0.11976	0.091280449	0.028479551
642.24	0.12154	0.091280449	0.030259551
642.28	0.12072	0.09128045	0.02943955
642.32	0.12836	0.09128045	0.03707955
642.36	0.128	0.091280451	0.036719549
642.4	0.1359	0.091280451	0.044619549
642.44	0.13753	0.091280452	0.046249548
642.48	0.1443	0.091280452	0.053019548
642.52	0.16146	0.091280453	0.070179547
642.56	0.1557	0.091280453	0.064419547
642.6	0.16588	0.091280454	0.074599546
642.64	0.17337	0.091280454	0.082089546
642.68	0.17362	0.091280455	0.082339545
642.72	0.17917	0.091280455	0.087889545
642.76	0.19317	0.091280455	0.101889545
642.8	0.19989	0.091280456	0.108609544
642.84	0.21008	0.091280456	0.118799544
642.88	0.2253	0.091280457	0.134019543
642.92	0.24332	0.091280457	0.152039543
642.96	0.24302	0.091280458	0.151739542
643	0.23767	0.091280458	0.146389542
643.04	0.25621	0.091280459	0.164929541
643.08	0.26002	0.091280459	0.168739541
643.12	0.25269	0.09128046	0.16140954
643.16	0.25636	0.09128046	0.16507954
643.2	0.2557	0.091280461	0.164419539
643.24	0.26863	0.091280461	0.177349539
643.28	0.26878	0.091280462	0.177499538
643.32	0.26603	0.091280462	0.174749538
643.36	0.25926	0.091280463	0.167979537
643.4	0.26008	0.091280463	0.168799537
643.44	0.24903	0.091280463	0.157749537
643.48	0.25386	0.091280464	0.162579536
643.52	0.24419	0.091280464	0.152909536
643.56	0.2445	0.091280465	0.153219535
643.6	0.22943	0.091280465	0.138149535
643.64	0.24317	0.091280466	0.151889534
643.68	0.22815	0.091280466	0.136869534
643.72	0.22713	0.091280467	0.135849533
643.76	0.21863	0.091280467	0.127349533
643.8	0.20539	0.091280468	0.114109532
643.84	0.2056	0.091280468	0.114319532
643.88	0.20432	0.091280469	0.113039531
643.92	0.19241	0.091280469	0.101129531
643.96	0.18762	0.09128047	0.09633953
644	0.17143	0.09128047	0.08014953
644.04	0.15743	0.09128047	0.06614953
644.08	0.15458	0.091280471	0.063299529
644.12	0.14705	0.091280471	0.055769529
644.16	0.14705	0.091280472	0.055769528
644.2	0.14236	0.091280472	0.051079528
644.24	0.12729	0.091280473	0.036009527
644.28	0.13198	0.091280473	0.040699527
644.32	0.11889	0.091280474	0.027609526
644.36	0.11421	0.091280474	0.022929526
644.4	0.11324	0.091280475	0.021959525
644.44	0.11319	0.091280475	0.021909525
644.48	0.11039	0.091280476	0.019109524
644.52	0.10382	0.091280476	0.012539524
644.56	0.10733	0.091280477	0.016049523
644.6	0.10825	0.091280477	0.016969523
644.64	0.09791	0.091280478	0.006629522
644.68	0.10545	0.091280478	0.014169522
644.72	0.1056	0.091280478	0.014319522
644.76	0.10647	0.091280479	0.015189521
644.8	0.10947	0.091280479	0.018189521
644.84	0.09807	0.09128048	0.00678952
644.88	0.1085	0.09128048	0.01721952
644.92	0.10189	0.091280481	0.010609519
644.96	0.10331	0.091280481	0.012029519
645	0.10183	0.091280482	0.010549518
645.04	0.10163	0.091280482	0.010349518
645.08	0.09878	0.091280483	0.007499517
645.12	0.1029	0.091280483	0.011619517
645.16	0.0916	0.091280484	0.000319516
645.2	0.09781	0.091280484	0.006529516
645.24	0.0999	0.091280485	0.008619515
645.28	0.10295	0.091280485	0.011669515
645.32	0.10295	0.091280486	0.011669514
645.36	0.09506	0.091280486	0.003779514
645.4	0.09786	0.091280486	0.006579514
645.44	0.10092	0.091280487	0.009639513
645.48	0.09328	0.091280487	0.001999513
645.52	0.10021	0.091280488	0.008929512
645.56	0.09333	0.091280488	0.002049512
645.6	0.0914	0.091280489	0.000119511
645.64	0.09165	0.091280489	0.000369511
645.68	0.09868	0.09128049	0.00739951
645.72	0.09725	0.09128049	0.00596951
645.76	0.09527	0.091280491	0.003989509
645.8	0.10357	0.091280491	0.012289509
645.84	0.09216	0.091280492	0.000879508
645.88	0.09802	0.091280492	0.006739508
645.92	0.09802	0.091280493	0.006739507
645.96	0.10087	0.091280493	0.009589507
646	0.0942	0.091280494	0.002919506
646.04	0.10377	0.091280494	0.012489506
646.08	0.097	0.091280494	0.005719506
646.12	0.10178	0.091280495	0.010499505
646.16	0.10367	0.091280495	0.012389505
646.2	0.10372	0.091280496	0.012439504
646.24	0.10077	0.091280496	0.009489504
646.28	0.10194	0.091280497	0.010659503
646.32	0.1028	0.091280497	0.011519503
646.36	0.10209	0.091280498	0.010809502
646.4	0.11125	0.091280498	0.019969502
646.44	0.10632	0.091280499	0.015039501
646.48	0.11217	0.091280499	0.020889501
646.52	0.11207	0.0912805	0.0207895
646.56	0.11589	0.0912805	0.0246095
646.6	0.11869	0.091280501	0.027409499
646.64	0.12459	0.091280501	0.033309499
646.68	0.13101	0.091280502	0.039729498
646.72	0.1387	0.091280502	0.047419498
646.76	0.14236	0.091280502	0.051079498
646.8	0.14241	0.091280503	0.051129497
646.84	0.14532	0.091280503	0.054039497
646.88	0.16792	0.091280504	0.076639496
646.92	0.17444	0.091280504	0.083159496
646.96	0.18773	0.091280505	0.096449495
647	0.19618	0.091280505	0.104899495
647.04	0.2113	0.091280506	0.120019494
647.08	0.21079	0.091280506	0.119509494
647.12	0.22153	0.091280507	0.130249493
647.16	0.24017	0.091280507	0.148889493
647.2	0.25992	0.091280508	0.168639492
647.24	0.27688	0.091280508	0.185599492
647.28	0.29582	0.091280509	0.204539491
647.32	0.31572	0.091280509	0.224439491
647.36	0.33263	0.09128051	0.24134949
647.4	0.33242	0.09128051	0.24113949
647.44	0.33339	0.09128051	0.24210949
647.48	0.34887	0.091280511	0.257589489
647.52	0.33568	0.091280511	0.244399489
647.56	0.34872	0.091280512	0.257439488
647.6	0.34714	0.091280512	0.255859488
647.64	0.34867	0.091280513	0.257389487
647.68	0.34887	0.091280513	0.257589487
647.72	0.33283	0.091280514	0.241549486
647.76	0.34938	0.091280514	0.258099486
647.8	0.32805	0.091280515	0.236769485
647.84	0.32265	0.091280515	0.231369485
647.88	0.31903	0.091280516	0.227749484
647.92	0.3034	0.091280516	0.212119484
647.96	0.30753	0.091280517	0.216249483
648	0.30717	0.091280517	0.215889483
648.04	0.28726	0.091280518	0.195979482
648.08	0.27515	0.091280518	0.183869482
648.12	0.26109	0.091280518	0.169809482
648.16	0.23839	0.091280519	0.147109481
648.2	0.23004	0.091280519	0.138759481
648.24	0.20356	0.09128052	0.11227948
648.28	0.20371	0.09128052	0.11242948
648.32	0.18584	0.091280521	0.094559479
648.36	0.17714	0.091280521	0.085859479
648.4	0.16298	0.091280522	0.071699478
648.44	0.14241	0.091280522	0.051129478
648.48	0.1443	0.091280523	0.053019477
648.52	0.12912	0.091280523	0.037839477
648.56	0.12907	0.091280524	0.037789476
648.6	0.11416	0.091280524	0.022879476
648.64	0.11492	0.091280525	0.023639475
648.68	0.11232	0.091280525	0.021039475
648.72	0.10479	0.091280526	0.013509474
648.76	0.10458	0.091280526	0.013299474
648.8	0.09883	0.091280526	0.007549474
648.84	0.09832	0.091280527	0.007039473
648.88	0.09817	0.091280527	0.006889473
648.92	0.10448	0.091280528	0.013199472
648.96	0.1	0.091280528	0.008719472
649	0.10295	0.091280529	0.011669471
649.04	0.09715	0.091280529	0.005869471
649.08	0.09975	0.09128053	0.00846947
649.12	0.09812	0.09128053	0.00683947
649.16	0.09807	0.091280531	0.006789469
649.2	0.09542	0.091280531	0.004139469
649.24	0.08839	0.091280532	-0.002890532
649.28	0.0973	0.091280532	0.006019468
649.32	0.09527	0.091280533	0.003989467
649.36	0.08956	0.091280533	-0.001720533
649.4	0.097	0.091280534	0.005719466
649.44	0.09735	0.091280534	0.006069466
649.48	0.09715	0.091280534	0.005869466
649.52	0.0972	0.091280535	0.005919465
649.56	0.09435	0.091280535	0.003069465
649.6	0.0971	0.091280536	0.005819464
649.64	0.08956	0.091280536	-0.001720536
649.68	0.09236	0.091280537	0.001079463
649.72	0.09175	0.091280537	0.000469463
649.76	0.09145	0.091280538	0.000169462
649.8	0.09522	0.091280538	0.003939462
649.84	0.09242	0.091280539	0.001139461
649.88	0.09527	0.091280539	0.003989461
649.92	0.09807	0.09128054	0.00678946
649.96	0.09761	0.09128054	0.00632946
650	0.09613	0.091280541	0.004849459
650.04	0.09639	0.091280541	0.005109459
650.08	0.09425	0.091280541	0.002969459
650.12	0.09511	0.091280542	0.003829458
650.16	0.09033	0.091280542	-0.000950542
650.2	0.09328	0.091280543	0.001999457
650.24	0.09511	0.091280543	0.003829457
650.28	0.09898	0.091280544	0.007699456
650.32	0.09812	0.091280544	0.006839456
650.36	0.09817	0.091280545	0.006889455
650.4	0.09348	0.091280545	0.002199455
650.44	0.09328	0.091280546	0.001999454
650.48	0.097	0.091280546	0.005719454
650.52	0.08956	0.091280547	-0.001720547
650.56	0.09827	0.091280547	0.006989453
650.6	0.09629	0.091280548	0.005009452
650.64	0.09629	0.091280548	0.005009452
650.68	0.09226	0.091280549	0.000979451
650.72	0.09023	0.091280549	-0.001050549
650.76	0.09685	0.091280549	0.005569451
650.8	0.09501	0.09128055	0.00372945
650.84	0.09048	0.09128055	-0.00080055
650.88	0.09425	0.091280551	0.002969449
650.92	0.09415	0.091280551	0.002869449
650.96	0.09364	0.091280552	0.002359448
651	0.09557	0.091280552	0.004289448
651.04	0.0944	0.091280553	0.003119447
651.08	0.08951	0.091280553	-0.001770553
651.12	0.09145	0.091280554	0.000169446
651.16	0.09236	0.091280554	0.001079446
651.2	0.09191	0.091280555	0.000629445
651.24	0.09226	0.091280555	0.000979445
651.28	0.09313	0.091280556	0.001849444
651.32	0.09623	0.091280556	0.004949444
651.36	0.09211	0.091280557	0.000829443
651.4	0.09445	0.091280557	0.003169443
651.44	0.09608	0.091280557	0.004799443
651.48	0.09175	0.091280558	0.000469442
651.52	0.0915	0.091280558	0.000219442
651.56	0.09455	0.091280559	0.003269441
651.6	0.09043	0.091280559	-0.000850559
651.64	0.09231	0.09128056	0.00102944
651.68	0.08839	0.09128056	-0.00289056
651.72	0.09399	0.091280561	0.002709439
651.76	0.09145	0.091280561	0.000169439
651.8	0.0914	0.091280562	0.000119438
651.84	0.08768	0.091280562	-0.003600562
651.88	0.09399	0.091280563	0.002709437
651.92	0.09623	0.091280563	0.004949437
651.96	0.0914	0.091280564	0.000119436
652	0.09481	0.091280564	0.003529436
652.04	0.09058	0.091280565	-0.000700565
652.08	0.0916	0.091280565	0.000319435
652.12	0.0916	0.091280565	0.000319435
652.16	0.09084	0.091280566	-0.000440566
652.2	0.08911	0.091280566	-0.002170566
652.24	0.09155	0.091280567	0.000269433
652.28	0.08564	0.091280567	-0.005640567
652.32	0.08921	0.091280568	-0.002070568
652.36	0.08829	0.091280568	-0.002990568
652.4	0.08855	0.091280569	-0.002730569
652.44	0.0943	0.091280569	0.003019431
652.48	0.08956	0.09128057	-0.00172057
652.52	0.08676	0.09128057	-0.00452057
652.56	0.09068	0.091280571	-0.000600571
652.6	0.09328	0.091280571	0.001999429
652.64	0.09226	0.091280572	0.000979428
652.68	0.0913	0.091280572	1.94279E-05
652.72	0.09155	0.091280573	0.000269427
652.76	0.09323	0.091280573	0.001949427
652.8	0.08962	0.091280573	-0.001660573
652.84	0.09405	0.091280574	0.002769426
652.88	0.09491	0.091280574	0.003629426
652.92	0.09425	0.091280575	0.002969425
652.96	0.09527	0.091280575	0.003989425
653	0.09522	0.091280576	0.003939424
653.04	0.09333	0.091280576	0.002049424
653.08	0.09231	0.091280577	0.001029423
653.12	0.08783	0.091280577	-0.003450577
653.16	0.09725	0.091280578	0.005969422
653.2	0.09221	0.091280578	0.000929422
653.24	0.08941	0.091280579	-0.001870579
653.28	0.08967	0.091280579	-0.001610579
653.32	0.0916	0.09128058	0.00031942
653.36	0.08844	0.09128058	-0.00284058
653.4	0.09328	0.091280581	0.001999419
653.44	0.09323	0.091280581	0.001949419
653.48	0.08829	0.091280581	-0.002990581
653.52	0.09221	0.091280582	0.000929418
653.56	0.08972	0.091280582	-0.001560582
653.6	0.08972	0.091280583	-0.001560583
653.64	0.09343	0.091280583	0.002149417
653.68	0.09033	0.091280584	-0.000950584
653.72	0.08956	0.091280584	-0.001720584
653.76	0.08844	0.091280585	-0.002840585
653.8	0.09211	0.091280585	0.000829415
653.84	0.09618	0.091280586	0.004899414
653.88	0.09629	0.091280586	0.005009414
653.92	0.09155	0.091280587	0.000269413
653.96	0.09308	0.091280587	0.001799413
654	0.09048	0.091280588	-0.000800588
654.04	0.09919	0.091280588	0.007909412
654.08	0.09695	0.091280589	0.005669411
654.12	0.0971	0.091280589	0.005819411
654.16	0.0972	0.091280589	0.005919411
654.2	0.09323	0.09128059	0.00194941
654.24	0.08676	0.09128059	-0.00452059
654.28	0.09898	0.091280591	0.007699409
654.32	0.08951	0.091280591	-0.001770591
654.36	0.09608	0.091280592	0.004799408
654.4	0.08956	0.091280592	-0.001720592
654.44	0.09252	0.091280593	0.001239407
654.48	0.09236	0.091280593	0.001079407
654.52	0.0913	0.091280594	1.94063E-05
654.56	0.08778	0.091280594	-0.003500594
654.6	0.08773	0.091280595	-0.003550595
654.64	0.09262	0.091280595	0.001339405
654.68	0.09542	0.091280596	0.004139404
654.72	0.09333	0.091280596	0.002049404
654.76	0.09318	0.091280597	0.001899403
654.8	0.09308	0.091280597	0.001799403
654.84	0.09226	0.091280597	0.000979403
654.88	0.09598	0.091280598	0.004699402
654.92	0.0916	0.091280598	0.000319402
654.96	0.09211	0.091280599	0.000829401
655	0.09522	0.091280599	0.003939401
655.04	0.08682	0.0912806	-0.0044606
655.08	0.08682	0.0912806	-0.0044606
655.12	0.08967	0.091280601	-0.001610601
655.16	0.09155	0.091280601	0.000269399
655.2	0.09343	0.091280602	0.002149398
655.24	0.09216	0.091280602	0.000879398
655.28	0.08778	0.091280603	-0.003500603
655.32	0.0944	0.091280603	0.003119397
655.36	0.09399	0.091280604	0.002709396
655.4	0.08834	0.091280604	-0.002940604
655.44	0.09226	0.091280605	0.000979395
655.48	0.09145	0.091280605	0.000169395
655.52	0.08972	0.091280605	-0.001560605
655.56	0.09048	0.091280606	-0.000800606
655.6	0.09145	0.091280606	0.000169394
655.64	0.09145	0.091280607	0.000169393
655.68	0.08875	0.091280607	-0.002530607
655.72	0.08844	0.091280608	-0.002840608
655.76	0.0886	0.091280608	-0.002680608
655.8	0.09038	0.091280609	-0.000900609
655.84	0.0885	0.091280609	-0.002780609
655.88	0.09517	0.09128061	0.00388939
655.92	0.09496	0.09128061	0.00367939
655.96	0.09532	0.091280611	0.004039389
656	0.0916	0.091280611	0.000319389
656.04	0.08962	0.091280612	-0.001660612
656.08	0.09501	0.091280612	0.003729388
656.12	0.09318	0.091280612	0.001899388
656.16	0.08972	0.091280613	-0.001560613
656.2	0.0918	0.091280613	0.000519387
656.24	0.0914	0.091280614	0.000119386
656.28	0.09124	0.091280614	-4.06144E-05
656.32	0.09155	0.091280615	0.000269385
656.36	0.08834	0.091280615	-0.002940615
656.4	0.09517	0.091280616	0.003889384
656.44	0.0972	0.091280616	0.005919384
656.48	0.09517	0.091280617	0.003889383
656.52	0.09435	0.091280617	0.003069383
656.56	0.09425	0.091280618	0.002969382
656.6	0.0945	0.091280618	0.003219382
656.64	0.097	0.091280619	0.005719381
656.68	0.09145	0.091280619	0.000169381
656.72	0.08936	0.09128062	-0.00192062
656.76	0.09252	0.09128062	0.00123938
656.8	0.09221	0.09128062	0.00092938
656.84	0.09231	0.091280621	0.001029379
656.88	0.09033	0.091280621	-0.000950621
656.92	0.0941	0.091280622	0.002819378
656.96	0.08702	0.091280622	-0.004260622
657	0.09318	0.091280623	0.001899377
657.04	0.09415	0.091280623	0.002869377
657.08	0.09226	0.091280624	0.000979376
657.12	0.09262	0.091280624	0.001339376
657.16	0.09175	0.091280625	0.000469375
657.2	0.08951	0.091280625	-0.001770625
657.24	0.08982	0.091280626	-0.001460626
657.28	0.09354	0.091280626	0.002259374
657.32	0.09236	0.091280627	0.001079373
657.36	0.09226	0.091280627	0.000979373
657.4	0.09216	0.091280628	0.000879372
657.44	0.09236	0.091280628	0.001079372
657.48	0.09145	0.091280628	0.000169372
657.52	0.08951	0.091280629	-0.001770629
657.56	0.09338	0.091280629	0.002099371
657.6	0.0914	0.09128063	0.00011937
657.64	0.09537	0.09128063	0.00408937
657.68	0.09791	0.091280631	0.006629369
657.72	0.09822	0.091280631	0.006939369
657.76	0.0886	0.091280632	-0.002680632
657.8	0.08743	0.091280632	-0.003850632
657.84	0.09084	0.091280633	-0.000440633
657.88	0.09048	0.091280633	-0.000800633
657.92	0.09522	0.091280634	0.003939366
657.96	0.09425	0.091280634	0.002969366
658	0.09394	0.091280635	0.002659365
658.04	0.0943	0.091280635	0.003019365
658.08	0.09038	0.091280636	-0.000900636
658.12	0.09236	0.091280636	0.001079364
658.16	0.09623	0.091280636	0.004949364
658.2	0.09522	0.091280637	0.003939363
658.24	0.0942	0.091280637	0.002919363
658.28	0.10097	0.091280638	0.009689362
658.32	0.10092	0.091280638	0.009639362
658.36	0.09435	0.091280639	0.003069361
658.4	0.10077	0.091280639	0.009489361
658.44	0.09593	0.09128064	0.00464936
658.48	0.1055	0.09128064	0.01421936
658.52	0.09807	0.091280641	0.006789359
658.56	0.09812	0.091280641	0.006839359
658.6	0.09807	0.091280642	0.006789358
658.64	0.10759	0.091280642	0.016309358
658.68	0.1112	0.091280643	0.019919357
658.72	0.11222	0.091280643	0.020939357
658.76	0.11629	0.091280644	0.025009356
658.8	0.12989	0.091280644	0.038609356
658.84	0.13747	0.091280644	0.046189356
658.88	0.13564	0.091280645	0.044359355
658.92	0.13554	0.091280645	0.044259355
658.96	0.14139	0.091280646	0.050109354
659	0.15809	0.091280646	0.066809354
659.04	0.16945	0.091280647	0.078169353
659.08	0.18488	0.091280647	0.093599353
659.12	0.18849	0.091280648	0.097209352
659.16	0.20748	0.091280648	0.116199352
659.2	0.20723	0.091280649	0.115949351
659.24	0.21206	0.091280649	0.120779351
659.28	0.23574	0.09128065	0.14445935
659.32	0.23839	0.09128065	0.14710935
659.36	0.26527	0.091280651	0.173989349
659.4	0.28665	0.091280651	0.195369349
659.44	0.29862	0.091280652	0.207339348
659.48	0.29882	0.091280652	0.207539348
659.52	0.3142	0.091280652	0.222919348
659.56	0.33085	0.091280653	0.239569347
659.6	0.34872	0.091280653	0.257439347
659.64	0.3505	0.091280654	0.259219346
659.68	0.36109	0.091280654	0.269809346
659.72	0.36206	0.091280655	0.270779345
659.76	0.35345	0.091280655	0.262169345
659.8	0.35345	0.091280656	0.262169344
659.84	0.36572	0.091280656	0.274439344
659.88	0.34984	0.091280657	0.258559343
659.92	0.34332	0.091280657	0.252039343
659.96	0.34607	0.091280658	0.254789342
660	0.35635	0.091280658	0.265069342
660.04	0.33589	0.091280659	0.244609341
660.08	0.33533	0.091280659	0.244049341
660.12	0.33823	0.09128066	0.24694934
660.16	0.32031	0.09128066	0.22902934
660.2	0.30926	0.09128066	0.21797934
660.24	0.29022	0.091280661	0.198939339
660.28	0.2669	0.091280661	0.175619339
660.32	0.26028	0.091280662	0.168999338
660.36	0.26038	0.091280662	0.169099338
660.4	0.24893	0.091280663	0.157649337
660.44	0.22825	0.091280663	0.136969337
660.48	0.20886	0.091280664	0.117579336
660.52	0.17815	0.091280664	0.086869336
660.56	0.16782	0.091280665	0.076539335
660.6	0.16044	0.091280665	0.069159335
660.64	0.14608	0.091280666	0.054799334
660.68	0.14603	0.091280666	0.054749334
660.72	0.13315	0.091280667	0.041869333
660.76	0.12347	0.091280667	0.032189333
660.8	0.12169	0.091280668	0.030409332
660.84	0.11024	0.091280668	0.018959332
660.88	0.11018	0.091280668	0.018899332
660.92	0.10178	0.091280669	0.010499331
660.96	0.10204	0.091280669	0.010759331
661	0.10927	0.09128067	0.01798933
661.04	0.09501	0.09128067	0.00372933
661.08	0.09781	0.091280671	0.006529329
661.12	0.10148	0.091280671	0.010199329
661.16	0.10265	0.091280672	0.011369328
661.2	0.10168	0.091280672	0.010399328
661.24	0.09766	0.091280673	0.006379327
661.28	0.09791	0.091280673	0.006629327
661.32	0.0971	0.091280674	0.005819326
661.36	0.09323	0.091280674	0.001949326
661.4	0.10474	0.091280675	0.013459325
661.44	0.09547	0.091280675	0.004189325
661.48	0.09359	0.091280675	0.002309325
661.52	0.09883	0.091280676	0.007549324
661.56	0.09903	0.091280676	0.007749324
661.6	0.09226	0.091280677	0.000979323
661.64	0.09807	0.091280677	0.006789323
661.68	0.09527	0.091280678	0.003989322
661.72	0.09231	0.091280678	0.001029322
661.76	0.09155	0.091280679	0.000269321
661.8	0.09445	0.091280679	0.003169321
661.84	0.09435	0.09128068	0.00306932
661.88	0.09435	0.09128068	0.00306932
661.92	0.09812	0.091280681	0.006839319
661.96	0.09618	0.091280681	0.004899319
662	0.09812	0.091280682	0.006839318
662.04	0.10077	0.091280682	0.009489318
662.08	0.09924	0.091280683	0.007959317
662.12	0.10367	0.091280683	0.012389317
662.16	0.10387	0.091280683	0.012589317
662.2	0.10285	0.091280684	0.011569316
662.24	0.097	0.091280684	0.005719316
662.28	0.0972	0.091280685	0.005919315
662.32	0.10173	0.091280685	0.010449315
662.36	0.10209	0.091280686	0.010809314
662.4	0.10453	0.091280686	0.013249314
662.44	0.10469	0.091280687	0.013409313
662.48	0.1056	0.091280687	0.014319313
662.52	0.10749	0.091280688	0.016209312
662.56	0.10749	0.091280688	0.016209312
662.6	0.1113	0.091280689	0.020019311
662.64	0.11395	0.091280689	0.022669311
662.68	0.1139	0.09128069	0.02261931
662.72	0.11395	0.09128069	0.02266931
662.76	0.11309	0.091280691	0.021809309
662.8	0.12062	0.091280691	0.029339309
662.84	0.11288	0.091280691	0.021599309
662.88	0.12245	0.091280692	0.031169308
662.92	0.12526	0.091280692	0.033979308
662.96	0.12251	0.091280693	0.031229307
663	0.12704	0.091280693	0.035759307
663.04	0.12739	0.091280694	0.036109306
663.08	0.12337	0.091280694	0.032089306
663.12	0.12149	0.091280695	0.030209305
663.16	0.12052	0.091280695	0.029239305
663.2	0.13086	0.091280696	0.039579304
663.24	0.12933	0.091280696	0.038049304
663.28	0.12561	0.091280697	0.034329303
663.32	0.12551	0.091280697	0.034229303
663.36	0.12352	0.091280698	0.032239302
663.4	0.13508	0.091280698	0.043799302
663.44	0.13131	0.091280699	0.040029301
663.48	0.1331	0.091280699	0.041819301
663.52	0.12928	0.091280699	0.037999301
663.56	0.14063	0.0912807	0.0493493
663.6	0.13294	0.0912807	0.0416593
663.64	0.13279	0.091280701	0.041509299
663.68	0.13554	0.091280701	0.044259299
663.72	0.14333	0.091280702	0.052049298
663.76	0.1387	0.091280702	0.047419298
663.8	0.13493	0.091280703	0.043649297
663.84	0.13019	0.091280703	0.038909297
663.88	0.13503	0.091280704	0.043749296
663.92	0.13493	0.091280704	0.043649296
663.96	0.13579	0.091280705	0.044509295
664	0.12907	0.091280705	0.037789295
664.04	0.13035	0.091280706	0.039069294
664.08	0.12724	0.091280706	0.035959294
664.12	0.11853	0.091280707	0.027249293
664.16	0.12067	0.091280707	0.029389293
664.2	0.12072	0.091280707	0.029439293
664.24	0.12164	0.091280708	0.030359292
664.28	0.1166	0.091280708	0.025319292
664.32	0.12821	0.091280709	0.036929291
664.36	0.11411	0.091280709	0.022829291
664.4	0.11497	0.09128071	0.02368929
664.44	0.114	0.09128071	0.02271929
664.48	0.11589	0.091280711	0.024609289
664.52	0.11609	0.091280711	0.024809289
664.56	0.11792	0.091280712	0.026639288
664.6	0.1084	0.091280712	0.017119288
664.64	0.10545	0.091280713	0.014169287
664.68	0.10275	0.091280713	0.011469287
664.72	0.1054	0.091280714	0.014119286
664.76	0.10239	0.091280714	0.011109286
664.8	0.1025	0.091280715	0.011219285
664.84	0.10367	0.091280715	0.012389285
664.88	0.10367	0.091280715	0.012389285
664.92	0.10285	0.091280716	0.011569284
664.96	0.10173	0.091280716	0.010449284
665	0.10509	0.091280717	0.013809283
665.04	0.10535	0.091280717	0.014069283
665.08	0.10565	0.091280718	0.014369282
665.12	0.10102	0.091280718	0.009739282
665.16	0.09786	0.091280719	0.006579281
665.2	0.09598	0.091280719	0.004699281
665.24	0.09776	0.09128072	0.00647928
665.28	0.09618	0.09128072	0.00489928
665.32	0.09888	0.091280721	0.007599279
665.36	0.09695	0.091280721	0.005669279
665.4	0.097	0.091280722	0.005719278
665.44	0.09919	0.091280722	0.007909278
665.48	0.09919	0.091280723	0.007909277
665.52	0.09909	0.091280723	0.007809277
665.56	0.09537	0.091280723	0.004089277
665.6	0.09415	0.091280724	0.002869276
665.64	0.0969	0.091280724	0.005619276
665.68	0.09725	0.091280725	0.005969275
665.72	0.09812	0.091280725	0.006839275
665.76	0.09903	0.091280726	0.007749274
665.8	0.09685	0.091280726	0.005569274
665.84	0.09807	0.091280727	0.006789273
665.88	0.09893	0.091280727	0.007649273
665.92	0.0972	0.091280728	0.005919272
665.96	0.09715	0.091280728	0.005869272
666	0.09735	0.091280729	0.006069271
666.04	0.09797	0.091280729	0.006689271
666.08	0.09634	0.09128073	0.00505927
666.12	0.10097	0.09128073	0.00968927
666.16	0.09623	0.091280731	0.004949269
666.2	0.09099	0.091280731	-0.000290731
666.24	0.097	0.091280731	0.005719269
666.28	0.097	0.091280732	0.005719268
666.32	0.09043	0.091280732	-0.000850732
666.36	0.09303	0.091280733	0.001749267
666.4	0.09303	0.091280733	0.001749267
666.44	0.09542	0.091280734	0.004139266
666.48	0.09695	0.091280734	0.005669266
666.52	0.08885	0.091280735	-0.002430735
666.56	0.0885	0.091280735	-0.002780735
666.6	0.09415	0.091280736	0.002869264
666.64	0.09415	0.091280736	0.002869264
666.68	0.097	0.091280737	0.005719263
666.72	0.09613	0.091280737	0.004849263
666.76	0.09588	0.091280738	0.004599262
666.8	0.09348	0.091280738	0.002199262
666.84	0.09119	0.091280739	-9.07385E-05
666.88	0.0915	0.091280739	0.000219261
666.92	0.09537	0.091280739	0.004089261
666.96	0.09155	0.09128074	0.00026926
667	0.08956	0.09128074	-0.00172074
667.04	0.0915	0.091280741	0.000219259
667.08	0.09608	0.091280741	0.004799259
667.12	0.09598	0.091280742	0.004699258
667.16	0.09618	0.091280742	0.004899258
667.2	0.0915	0.091280743	0.000219257
667.24	0.09608	0.091280743	0.004799257
667.28	0.09613	0.091280744	0.004849256
667.32	0.08855	0.091280744	-0.002730744
667.36	0.09425	0.091280745	0.002969255
667.4	0.09216	0.091280745	0.000879255
667.44	0.09242	0.091280746	0.001139254
667.48	0.09914	0.091280746	0.007859254
667.52	0.09435	0.091280746	0.003069254
667.56	0.09817	0.091280747	0.006889253
667.6	0.09532	0.091280747	0.004039253
667.64	0.09226	0.091280748	0.000979252
667.68	0.09639	0.091280748	0.005109252
667.72	0.09252	0.091280749	0.001239251
667.76	0.09216	0.091280749	0.000879251
667.8	0.09231	0.09128075	0.00102925
667.84	0.09532	0.09128075	0.00403925
667.88	0.09613	0.091280751	0.004849249
667.92	0.09435	0.091280751	0.003069249
667.96	0.08946	0.091280752	-0.001820752
668	0.09425	0.091280752	0.002969248
668.04	0.0942	0.091280753	0.002919247
668.08	0.0944	0.091280753	0.003119247
668.12	0.09165	0.091280754	0.000369246
668.16	0.0942	0.091280754	0.002919246
668.2	0.09618	0.091280754	0.004899246
668.24	0.09791	0.091280755	0.006629245
668.28	0.09802	0.091280755	0.006739245
668.32	0.09328	0.091280756	0.001999244
668.36	0.09328	0.091280756	0.001999244
668.4	0.08946	0.091280757	-0.001820757
668.44	0.08829	0.091280757	-0.002990757
668.48	0.09145	0.091280758	0.000169242
668.52	0.09425	0.091280758	0.002969242
668.56	0.09216	0.091280759	0.000879241
668.6	0.09338	0.091280759	0.002099241
668.64	0.09338	0.09128076	0.00209924
668.68	0.09053	0.09128076	-0.00075076
668.72	0.09033	0.091280761	-0.000950761
668.76	0.0916	0.091280761	0.000319239
668.8	0.08768	0.091280762	-0.003600762
668.84	0.08768	0.091280762	-0.003600762
668.88	0.08946	0.091280762	-0.001820762
668.92	0.08956	0.091280763	-0.001720763
668.96	0.0941	0.091280763	0.002819237
669	0.08773	0.091280764	-0.003550764
669.04	0.09043	0.091280764	-0.000850764
669.08	0.09445	0.091280765	0.003169235
669.12	0.09242	0.091280765	0.001139235
669.16	0.09236	0.091280766	0.001079234
669.2	0.09247	0.091280766	0.001189234
669.24	0.09236	0.091280767	0.001079233
669.28	0.09511	0.091280767	0.003829233
669.32	0.09715	0.091280768	0.005869232
669.36	0.0942	0.091280768	0.002919232
669.4	0.09155	0.091280769	0.000269231
669.44	0.08931	0.091280769	-0.001970769
669.48	0.09226	0.09128077	0.00097923
669.52	0.09226	0.09128077	0.00097923
669.56	0.09074	0.09128077	-0.00054077
669.6	0.0972	0.091280771	0.005919229
669.64	0.09043	0.091280771	-0.000850771
669.68	0.09048	0.091280772	-0.000800772
669.72	0.09425	0.091280772	0.002969228
669.76	0.09328	0.091280773	0.001999227
669.8	0.09506	0.091280773	0.003779227
669.84	0.09491	0.091280774	0.003629226
669.88	0.09608	0.091280774	0.004799226
669.92	0.08763	0.091280775	-0.003650775
669.96	0.09603	0.091280775	0.004749225
670	0.09613	0.091280776	0.004849224
670.04	0.09598	0.091280776	0.004699224
670.08	0.09552	0.091280777	0.004239223
670.12	0.09501	0.091280777	0.003729223
670.16	0.09552	0.091280778	0.004239222
670.2	0.09649	0.091280778	0.005209222
670.24	0.09914	0.091280778	0.007859222
670.28	0.10015	0.091280779	0.008869221
670.32	0.09028	0.091280779	-0.001000779
670.36	0.097	0.09128078	0.00571922
670.4	0.09705	0.09128078	0.00576922
670.44	0.09725	0.091280781	0.005969219
670.48	0.09603	0.091280781	0.004749219
670.52	0.10357	0.091280782	0.012289218
670.56	0.09613	0.091280782	0.004849218
670.6	0.09995	0.091280783	0.008669217
670.64	0.09695	0.091280783	0.005669217
670.68	0.10275	0.091280784	0.011469216
670.72	0.10255	0.091280784	0.011269216
670.76	0.10183	0.091280785	0.010549215
670.8	0.1055	0.091280785	0.014219215
670.84	0.10153	0.091280786	0.010249214
670.88	0.10469	0.091280786	0.013409214
670.92	0.10352	0.091280786	0.012239214
670.96	0.10458	0.091280787	0.013299213
671	0.10443	0.091280787	0.013149213
671.04	0.1027	0.091280788	0.011419212
671.08	0.10372	0.091280788	0.012439212
671.12	0.10733	0.091280789	0.016049211
671.16	0.1	0.091280789	0.008719211
671.2	0.10744	0.09128079	0.01615921
671.24	0.10102	0.09128079	0.00973921
671.28	0.10077	0.091280791	0.009489209
671.32	0.10927	0.091280791	0.017989209
671.36	0.10189	0.091280792	0.010609208
671.4	0.10194	0.091280792	0.010659208
671.44	0.10942	0.091280793	0.018139207
671.48	0.10362	0.091280793	0.012339207
671.52	0.10275	0.091280794	0.011469206
671.56	0.10723	0.091280794	0.015949206
671.6	0.10749	0.091280794	0.016209206
671.64	0.10576	0.091280795	0.014479205
671.68	0.10464	0.091280795	0.013359205
671.72	0.10082	0.091280796	0.009539204
671.76	0.10082	0.091280796	0.009539204
671.8	0.1	0.091280797	0.008719203
671.84	0.10178	0.091280797	0.010499203
671.88	0.10173	0.091280798	0.010449202
671.92	0.10194	0.091280798	0.010659202
671.96	0.10647	0.091280799	0.015189201
672	0.09522	0.091280799	0.003939201
672.04	0.09924	0.0912808	0.0079592
672.08	0.10082	0.0912808	0.0095392
672.12	0.09807	0.091280801	0.006789199
672.16	0.09705	0.091280801	0.005769199
672.2	0.09725	0.091280802	0.005969198
672.24	0.09909	0.091280802	0.007809198
672.28	0.09705	0.091280802	0.005769198
672.32	0.09909	0.091280803	0.007809197
672.36	0.09909	0.091280803	0.007809197
672.4	0.0971	0.091280804	0.005819196
672.44	0.09333	0.091280804	0.002049196
672.48	0.09303	0.091280805	0.001749195
672.52	0.09695	0.091280805	0.005669195
672.56	0.09618	0.091280806	0.004899194
672.6	0.09522	0.091280806	0.003939194
672.64	0.09231	0.091280807	0.001029193
672.68	0.09343	0.091280807	0.002149193
672.72	0.09343	0.091280808	0.002149192
672.76	0.09323	0.091280808	0.001949192
672.8	0.08778	0.091280809	-0.003500809
672.84	0.09231	0.091280809	0.001029191
672.88	0.09058	0.09128081	-0.00070081
672.92	0.09206	0.09128081	0.00077919
672.96	0.09303	0.09128081	0.00174919
673	0.09598	0.091280811	0.004699189
673.04	0.09532	0.091280811	0.004039189
673.08	0.09506	0.091280812	0.003779188
673.12	0.0941	0.091280812	0.002819188
673.16	0.0971	0.091280813	0.005819187
673.2	0.09221	0.091280813	0.000929187
673.24	0.0916	0.091280814	0.000319186
673.28	0.09343	0.091280814	0.002149186
673.32	0.09323	0.091280815	0.001949185
673.36	0.09308	0.091280815	0.001799185
673.4	0.09068	0.091280816	-0.000600816
673.44	0.09226	0.091280816	0.000979184
673.48	0.08931	0.091280817	-0.001970817
673.52	0.09613	0.091280817	0.004849183
673.56	0.09786	0.091280817	0.006579183
673.6	0.09318	0.091280818	0.001899182
673.64	0.09328	0.091280818	0.001999182
673.68	0.08855	0.091280819	-0.002730819
673.72	0.09063	0.091280819	-0.000650819
673.76	0.09328	0.09128082	0.00199918
673.8	0.09038	0.09128082	-0.00090082
673.84	0.09048	0.091280821	-0.000800821
673.88	0.09231	0.091280821	0.001029179
673.92	0.08783	0.091280822	-0.003450822
673.96	0.08753	0.091280822	-0.003750822
674	0.09328	0.091280823	0.001999177
674.04	0.08844	0.091280823	-0.002840823
674.08	0.08483	0.091280824	-0.006450824
674.12	0.09313	0.091280824	0.001849176
674.16	0.09048	0.091280825	-0.000800825
674.2	0.09359	0.091280825	0.002309175
674.24	0.09343	0.091280825	0.002149175
674.28	0.08956	0.091280826	-0.001720826
674.32	0.09231	0.091280826	0.001029174
674.36	0.09221	0.091280827	0.000929173
674.4	0.08967	0.091280827	-0.001610827
674.44	0.0914	0.091280828	0.000119172
674.48	0.08661	0.091280828	-0.004670828
674.52	0.09348	0.091280829	0.002199171
674.56	0.09333	0.091280829	0.002049171
674.6	0.0942	0.09128083	0.00291917
674.64	0.09145	0.09128083	0.00016917
674.68	0.09303	0.091280831	0.001749169
674.72	0.0915	0.091280831	0.000219169
674.76	0.09231	0.091280832	0.001029168
674.8	0.09338	0.091280832	0.002099168
674.84	0.09343	0.091280833	0.002149167
674.88	0.09236	0.091280833	0.001079167
674.92	0.09221	0.091280833	0.000929167
674.96	0.09221	0.091280834	0.000929166
675	0.0914	0.091280834	0.000119166
675.04	0.08753	0.091280835	-0.003750835
675.08	0.08824	0.091280835	-0.003040835
675.12	0.08834	0.091280836	-0.002940836
675.16	0.09527	0.091280836	0.003989164
675.2	0.08916	0.091280837	-0.002120837
675.24	0.09155	0.091280837	0.000269163
675.28	0.08946	0.091280838	-0.001820838
675.32	0.09247	0.091280838	0.001189162
675.36	0.09522	0.091280839	0.003939161
675.4	0.09323	0.091280839	0.001949161
675.44	0.09333	0.09128084	0.00204916
675.48	0.08371	0.09128084	-0.00757084
675.52	0.09068	0.091280841	-0.000600841
675.56	0.09318	0.091280841	0.001899159
675.6	0.08763	0.091280841	-0.003650841
675.64	0.08773	0.091280842	-0.003550842
675.68	0.09618	0.091280842	0.004899158
675.72	0.09613	0.091280843	0.004849157
675.76	0.0886	0.091280843	-0.002680843
675.8	0.09348	0.091280844	0.002199156
675.84	0.09155	0.091280844	0.000269156
675.88	0.08585	0.091280845	-0.005430845
675.92	0.08794	0.091280845	-0.003340845
675.96	0.08829	0.091280846	-0.002990846
676	0.08855	0.091280846	-0.002730846
676.04	0.09323	0.091280847	0.001949153
676.08	0.08564	0.091280847	-0.005640847
676.12	0.08855	0.091280848	-0.002730848
676.16	0.09048	0.091280848	-0.000800848
676.2	0.08758	0.091280849	-0.003700849
676.24	0.09328	0.091280849	0.001999151
676.28	0.08951	0.091280849	-0.001770849
676.32	0.08967	0.09128085	-0.00161085
676.36	0.09038	0.09128085	-0.00090085
676.4	0.09247	0.091280851	0.001189149
676.44	0.09155	0.091280851	0.000269149
676.48	0.09145	0.091280852	0.000169148
676.52	0.09415	0.091280852	0.002869148
676.56	0.09221	0.091280853	0.000929147
676.6	0.09226	0.091280853	0.000979147
676.64	0.09257	0.091280854	0.001289146
676.68	0.0941	0.091280854	0.002819146
676.72	0.09119	0.091280855	-9.08546E-05
676.76	0.09425	0.091280855	0.002969145
676.8	0.08783	0.091280856	-0.003450856
676.84	0.09425	0.091280856	0.002969144
676.88	0.09226	0.091280857	0.000979143
676.92	0.09247	0.091280857	0.001189143
676.96	0.0914	0.091280857	0.000119143
677	0.09063	0.091280858	-0.000650858
677.04	0.0914	0.091280858	0.000119142
677.08	0.09328	0.091280859	0.001999141
677.12	0.09165	0.091280859	0.000369141
677.16	0.08763	0.09128086	-0.00365086
677.2	0.08753	0.09128086	-0.00375086
677.24	0.09537	0.091280861	0.004089139
677.28	0.09522	0.091280861	0.003939139
677.32	0.08951	0.091280862	-0.001770862
677.36	0.0887	0.091280862	-0.002580862
677.4	0.09786	0.091280863	0.006579137
677.44	0.09231	0.091280863	0.001029137
677.48	0.09226	0.091280864	0.000979136
677.52	0.08753	0.091280864	-0.003750864
677.56	0.09012	0.091280865	-0.001160865
677.6	0.09216	0.091280865	0.000879135
677.64	0.09532	0.091280865	0.004039135
677.68	0.09236	0.091280866	0.001079134
677.72	0.09506	0.091280866	0.003779134
677.76	0.09231	0.091280867	0.001029133
677.8	0.09226	0.091280867	0.000979133
677.84	0.09348	0.091280868	0.002199132
677.88	0.09262	0.091280868	0.001339132
677.92	0.08931	0.091280869	-0.001970869
677.96	0.0885	0.091280869	-0.002780869
678	0.08982	0.09128087	-0.00146087
678.04	0.09231	0.09128087	0.00102913
678.08	0.09231	0.091280871	0.001029129
678.12	0.09068	0.091280871	-0.000600871
678.16	0.0916	0.091280872	0.000319128
678.2	0.09028	0.091280872	-0.001000872
678.24	0.09231	0.091280873	0.001029127
678.28	0.09415	0.091280873	0.002869127
678.32	0.09074	0.091280873	-0.000540873
678.36	0.09074	0.091280874	-0.000540874
678.4	0.08951	0.091280874	-0.001770874
678.44	0.09242	0.091280875	0.001139125
678.48	0.08921	0.091280875	-0.002070875
678.52	0.09058	0.091280876	-0.000700876
678.56	0.09221	0.091280876	0.000929124
678.6	0.08931	0.091280877	-0.001970877
678.64	0.08676	0.091280877	-0.004520877
678.68	0.08671	0.091280878	-0.004570878
678.72	0.08783	0.091280878	-0.003450878
678.76	0.09028	0.091280879	-0.001000879
678.8	0.09527	0.091280879	0.003989121
678.84	0.09135	0.09128088	6.91204E-05
678.88	0.08967	0.09128088	-0.00161088
678.92	0.09155	0.091280881	0.000269119
678.96	0.0914	0.091280881	0.000119119
679	0.08962	0.091280881	-0.001660881
679.04	0.08951	0.091280882	-0.001770882
679.08	0.09425	0.091280882	0.002969118
679.12	0.08554	0.091280883	-0.005740883
679.16	0.09053	0.091280883	-0.000750883
679.2	0.0914	0.091280884	0.000119116
679.24	0.09231	0.091280884	0.001029116
679.28	0.09211	0.091280885	0.000829115
679.32	0.09226	0.091280885	0.000979115
679.36	0.08865	0.091280886	-0.002630886
679.4	0.09542	0.091280886	0.004139114
679.44	0.09216	0.091280887	0.000879113
679.48	0.09328	0.091280887	0.001999113
679.52	0.08778	0.091280888	-0.003500888
679.56	0.08778	0.091280888	-0.003500888
679.6	0.08203	0.091280888	-0.009250888
679.64	0.09058	0.091280889	-0.000700889
679.68	0.09236	0.091280889	0.001079111
679.72	0.09695	0.09128089	0.00566911
679.76	0.0914	0.09128089	0.00011911
679.8	0.09124	0.091280891	-4.08908E-05
679.84	0.09135	0.091280891	6.91087E-05
679.88	0.09053	0.091280892	-0.000750892
679.92	0.09145	0.091280892	0.000169108
679.96	0.08493	0.091280893	-0.006350893
680	0.0971	0.091280893	0.005819107
680.04	0.09623	0.091280894	0.004949106
680.08	0.09527	0.091280894	0.003989106
680.12	0.08844	0.091280895	-0.002840895
680.16	0.08839	0.091280895	-0.002890895
680.2	0.08829	0.091280896	-0.002990896
680.24	0.08748	0.091280896	-0.003800896
680.28	0.0885	0.091280896	-0.002780896
680.32	0.08834	0.091280897	-0.002940897
680.36	0.0943	0.091280897	0.003019103
680.4	0.09425	0.091280898	0.002969102
680.44	0.09435	0.091280898	0.003069102
680.48	0.09079	0.091280899	-0.000490899
680.52	0.09374	0.091280899	0.002459101
680.56	0.08946	0.0912809	-0.0018209
680.6	0.0885	0.0912809	-0.0027809
680.64	0.08274	0.091280901	-0.008540901
680.68	0.08956	0.091280901	-0.001720901
680.72	0.08921	0.091280902	-0.002070902
680.76	0.0886	0.091280902	-0.002680902
680.8	0.0857	0.091280903	-0.005580903
680.84	0.08936	0.091280903	-0.001920903
680.88	0.0943	0.091280904	0.003019096
680.92	0.08544	0.091280904	-0.005840904
680.96	0.09216	0.091280904	0.000879096
681	0.08951	0.091280905	-0.001770905
681.04	0.08962	0.091280905	-0.001660905
681.08	0.09058	0.091280906	-0.000700906
681.12	0.08972	0.091280906	-0.001560906
681.16	0.09338	0.091280907	0.002099093
681.2	0.09028	0.091280907	-0.001000907
681.24	0.09435	0.091280908	0.003069092
681.28	0.0886	0.091280908	-0.002680908
681.32	0.08839	0.091280909	-0.002890909
681.36	0.08651	0.091280909	-0.004770909
681.4	0.09048	0.09128091	-0.00080091
681.44	0.09247	0.09128091	0.00118909
681.48	0.09084	0.091280911	-0.000440911
681.52	0.09511	0.091280911	0.003829089
681.56	0.09354	0.091280912	0.002259088
681.6	0.0857	0.091280912	-0.005580912
681.64	0.08595	0.091280912	-0.005330912
681.68	0.0943	0.091280913	0.003019087
681.72	0.09878	0.091280913	0.007499087
681.76	0.09053	0.091280914	-0.000750914
681.8	0.09028	0.091280914	-0.001000914
681.84	0.08585	0.091280915	-0.005430915
681.88	0.09323	0.091280915	0.001949085
681.92	0.09313	0.091280916	0.001849084
681.96	0.08855	0.091280916	-0.002730916
682	0.08773	0.091280917	-0.003550917
682.04	0.10077	0.091280917	0.009489083
682.08	0.08753	0.091280918	-0.003750918
682.12	0.09211	0.091280918	0.000829082
682.16	0.09221	0.091280919	0.000929081
682.2	0.09257	0.091280919	0.001289081
682.24	0.09028	0.09128092	-0.00100092
682.28	0.09226	0.09128092	0.00097908
682.32	0.0885	0.09128092	-0.00278092
682.36	0.09043	0.091280921	-0.000850921
682.4	0.09145	0.091280921	0.000169079
682.44	0.08951	0.091280922	-0.001770922
682.48	0.0972	0.091280922	0.005919078
682.52	0.0971	0.091280923	0.005819077
682.56	0.0858	0.091280923	-0.005480923
682.6	0.0887	0.091280924	-0.002580924
682.64	0.09608	0.091280924	0.004799076
682.68	0.09328	0.091280925	0.001999075
682.72	0.0916	0.091280925	0.000319075
682.76	0.08865	0.091280926	-0.002630926
682.8	0.08844	0.091280926	-0.002840926
682.84	0.09231	0.091280927	0.001029073
682.88	0.09221	0.091280927	0.000929073
682.92	0.08834	0.091280928	-0.002940928
682.96	0.09048	0.091280928	-0.000800928
683	0.09318	0.091280928	0.001899072
683.04	0.08824	0.091280929	-0.003040929
683.08	0.0915	0.091280929	0.000219071
683.12	0.09145	0.09128093	0.00016907
683.16	0.09242	0.09128093	0.00113907
683.2	0.0887	0.091280931	-0.002580931
683.24	0.0916	0.091280931	0.000319069
683.28	0.08962	0.091280932	-0.001660932
683.32	0.09048	0.091280932	-0.000800932
683.36	0.0914	0.091280933	0.000119067
683.4	0.0914	0.091280933	0.000119067
683.44	0.09405	0.091280934	0.002769066
683.48	0.08962	0.091280934	-0.001660934
683.52	0.0917	0.091280935	0.000419065
683.56	0.09074	0.091280935	-0.000540935
683.6	0.09445	0.091280936	0.003169064
683.64	0.08875	0.091280936	-0.002530936
683.68	0.08855	0.091280936	-0.002730936
683.72	0.09053	0.091280937	-0.000750937
683.76	0.08956	0.091280937	-0.001720937
683.8	0.08468	0.091280938	-0.006600938
683.84	0.08855	0.091280938	-0.002730938
683.88	0.08458	0.091280939	-0.006700939
683.92	0.09517	0.091280939	0.003889061
683.96	0.08931	0.09128094	-0.00197094
684	0.08962	0.09128094	-0.00166094
684.04	0.0941	0.091280941	0.002819059
684.08	0.09593	0.091280941	0.004649059
684.12	0.0885	0.091280942	-0.002780942
684.16	0.08783	0.091280942	-0.003450942
684.2	0.09354	0.091280943	0.002259057
684.24	0.09425	0.091280943	0.002969057
684.28	0.0942	0.091280944	0.002919056
684.32	0.09338	0.091280944	0.002099056
684.36	0.09517	0.091280944	0.003889056
684.4	0.0944	0.091280945	0.003119055
684.44	0.09323	0.091280945	0.001949055
684.48	0.09292	0.091280946	0.001639054
684.52	0.08376	0.091280946	-0.007520946
684.56	0.08391	0.091280947	-0.007370947
684.6	0.08758	0.091280947	-0.003700947
684.64	0.08585	0.091280948	-0.005430948
684.68	0.08967	0.091280948	-0.001610948
684.72	0.09435	0.091280949	0.003069051
684.76	0.09725	0.091280949	0.005969051
684.8	0.09425	0.09128095	0.00296905
684.84	0.08931	0.09128095	-0.00197095
684.88	0.08946	0.091280951	-0.001820951
684.92	0.0943	0.091280951	0.003019049
684.96	0.0941	0.091280951	0.002819049
685	0.09527	0.091280952	0.003989048
685.04	0.09155	0.091280952	0.000269048
685.08	0.08473	0.091280953	-0.006550953
685.12	0.09242	0.091280953	0.001139047
685.16	0.09231	0.091280954	0.001029046
685.2	0.09155	0.091280954	0.000269046
685.24	0.09236	0.091280955	0.001079045
685.28	0.08956	0.091280955	-0.001720955
685.32	0.08834	0.091280956	-0.002940956
685.36	0.09135	0.091280956	6.90438E-05
685.4	0.09588	0.091280957	0.004599043
685.44	0.08844	0.091280957	-0.002840957
685.48	0.0885	0.091280958	-0.002780958
685.52	0.09242	0.091280958	0.001139042
685.56	0.09496	0.091280959	0.003679041
685.6	0.08844	0.091280959	-0.002840959
685.64	0.08855	0.091280959	-0.002730959
685.68	0.08768	0.09128096	-0.00360096
685.72	0.09623	0.09128096	0.00494904
685.76	0.09598	0.091280961	0.004699039
685.8	0.09537	0.091280961	0.004089039
685.84	0.09221	0.091280962	0.000929038
685.88	0.09028	0.091280962	-0.001000962
685.92	0.09216	0.091280963	0.000879037
685.96	0.09231	0.091280963	0.001029037
686	0.0885	0.091280964	-0.002780964
686.04	0.0886	0.091280964	-0.002680964
686.08	0.09685	0.091280965	0.005569035
686.12	0.09124	0.091280965	-4.09651E-05
686.16	0.09343	0.091280966	0.002149034
686.2	0.09522	0.091280966	0.003939034
686.24	0.09527	0.091280967	0.003989033
686.28	0.0885	0.091280967	-0.002780967
686.32	0.0941	0.091280967	0.002819033
686.36	0.0941	0.091280968	0.002819032
686.4	0.09313	0.091280968	0.001849032
686.44	0.09028	0.091280969	-0.001000969
686.48	0.09242	0.091280969	0.001139031
686.52	0.10082	0.09128097	0.00953903
686.56	0.09394	0.09128097	0.00265903
686.6	0.0914	0.091280971	0.000119029
686.64	0.0915	0.091280971	0.000219029
686.68	0.08839	0.091280972	-0.002890972
686.72	0.0916	0.091280972	0.000319028
686.76	0.08788	0.091280973	-0.003400973
686.8	0.09068	0.091280973	-0.000600973
686.84	0.09058	0.091280974	-0.000700974
686.88	0.0915	0.091280974	0.000219026
686.92	0.0915	0.091280975	0.000219025
686.96	0.08967	0.091280975	-0.001610975
687	0.0885	0.091280975	-0.002780975
687.04	0.0915	0.091280976	0.000219024
687.08	0.09888	0.091280976	0.007599024
687.12	0.0942	0.091280977	0.002919023
687.16	0.08972	0.091280977	-0.001560977
687.2	0.09333	0.091280978	0.002049022
687.24	0.09343	0.091280978	0.002149022
687.28	0.08956	0.091280979	-0.001720979
687.32	0.0916	0.091280979	0.000319021
687.36	0.08865	0.09128098	-0.00263098
687.4	0.09817	0.09128098	0.00688902
687.44	0.09033	0.091280981	-0.000950981
687.48	0.08676	0.091280981	-0.004520981
687.52	0.08671	0.091280982	-0.004570982
687.56	0.08488	0.091280982	-0.006400982
687.6	0.09058	0.091280983	-0.000700983
687.64	0.08967	0.091280983	-0.001610983
687.68	0.09043	0.091280983	-0.000850983
687.72	0.0915	0.091280984	0.000219016
687.76	0.0944	0.091280984	0.003119016
687.8	0.08967	0.091280985	-0.001610985
687.84	0.08946	0.091280985	-0.001820985
687.88	0.08794	0.091280986	-0.003340986
687.92	0.09613	0.091280986	0.004849014
687.96	0.08483	0.091280987	-0.006450987
688	0.08967	0.091280987	-0.001610987
688.04	0.0942	0.091280988	0.002919012
688.08	0.08758	0.091280988	-0.003700988
688.12	0.08783	0.091280989	-0.003450989
688.16	0.09033	0.091280989	-0.000950989
688.2	0.08651	0.09128099	-0.00477099
688.24	0.09053	0.09128099	-0.00075099
688.28	0.09135	0.091280991	6.90095E-05
688.32	0.09333	0.091280991	0.002049009
688.36	0.09348	0.091280991	0.002199009
688.4	0.09328	0.091280992	0.001999008
688.44	0.08763	0.091280992	-0.003650992
688.48	0.09247	0.091280993	0.001189007
688.52	0.08941	0.091280993	-0.001870993
688.56	0.09231	0.091280994	0.001029006
688.6	0.08962	0.091280994	-0.001660994
688.64	0.09252	0.091280995	0.001239005
688.68	0.09033	0.091280995	-0.000950995
688.72	0.09074	0.091280996	-0.000540996
688.76	0.08967	0.091280996	-0.001610996
688.8	0.09415	0.091280997	0.002869003
688.84	0.09318	0.091280997	0.001899003
688.88	0.09552	0.091280998	0.004239002
688.92	0.09048	0.091280998	-0.000800998
688.96	0.08931	0.091280999	-0.001970999
689	0.08967	0.091280999	-0.001610999
689.04	0.09231	0.091280999	0.001029001
689.08	0.09221	0.091281	0.000929
689.12	0.08931	0.091281	-0.001971
689.16	0.08855	0.091281001	-0.002731001
689.2	0.09236	0.091281001	0.001078999
689.24	0.09236	0.091281002	0.001078998
689.28	0.09236	0.091281002	0.001078998
689.32	0.09226	0.091281003	0.000978997
689.36	0.08962	0.091281003	-0.001661003
689.4	0.09318	0.091281004	0.001898996
689.44	0.09435	0.091281004	0.003068996
689.48	0.08778	0.091281005	-0.003501005
689.52	0.09603	0.091281005	0.004748995
689.56	0.08666	0.091281006	-0.004621006
689.6	0.08666	0.091281006	-0.004621006
689.64	0.08951	0.091281007	-0.001771007
689.68	0.09023	0.091281007	-0.001051007
689.72	0.09343	0.091281007	0.002148993
689.76	0.08778	0.091281008	-0.003501008
689.8	0.08956	0.091281008	-0.001721008
689.84	0.09333	0.091281009	0.002048991
689.88	0.09318	0.091281009	0.001898991
689.92	0.08946	0.09128101	-0.00182101
689.96	0.08982	0.09128101	-0.00146101
690	0.09221	0.091281011	0.000928989
690.04	0.09629	0.091281011	0.005008989
690.08	0.09333	0.091281012	0.002048988
690.12	0.09028	0.091281012	-0.001001012
690.16	0.09216	0.091281013	0.000878987
690.2	0.09231	0.091281013	0.001028987
690.24	0.09165	0.091281014	0.000368986
690.28	0.0917	0.091281014	0.000418986
690.32	0.0916	0.091281015	0.000318985
690.36	0.0941	0.091281015	0.002818985
690.4	0.09415	0.091281015	0.002868985
690.44	0.09415	0.091281016	0.002868984
690.48	0.09425	0.091281016	0.002968984
690.52	0.09226	0.091281017	0.000978983
690.56	0.0943	0.091281017	0.003018983
690.6	0.08839	0.091281018	-0.002891018
690.64	0.08575	0.091281018	-0.005531018
690.68	0.09038	0.091281019	-0.000901019
690.72	0.09318	0.091281019	0.001898981
690.76	0.09318	0.09128102	0.00189898
690.8	0.09023	0.09128102	-0.00105102
690.84	0.09226	0.091281021	0.000978979
690.88	0.09532	0.091281021	0.004038979
690.92	0.09028	0.091281022	-0.001001022
690.96	0.0914	0.091281022	0.000118978
691	0.0916	0.091281022	0.000318978
691.04	0.09028	0.091281023	-0.001001023
691.08	0.09023	0.091281023	-0.001051023
691.12	0.09206	0.091281024	0.000778976
691.16	0.09216	0.091281024	0.000878976
691.2	0.09511	0.091281025	0.003828975
691.24	0.08936	0.091281025	-0.001921025
691.28	0.09338	0.091281026	0.002098974
691.32	0.10082	0.091281026	0.009538974
691.36	0.10082	0.091281027	0.009538973
691.4	0.0886	0.091281027	-0.002681027
691.44	0.08844	0.091281028	-0.002841028
691.48	0.08768	0.091281028	-0.003601028
691.52	0.09537	0.091281029	0.004088971
691.56	0.09445	0.091281029	0.003168971
691.6	0.09338	0.09128103	0.00209897
691.64	0.09308	0.09128103	0.00179897
691.68	0.09236	0.09128103	0.00107897
691.72	0.08941	0.091281031	-0.001871031
691.76	0.08768	0.091281031	-0.003601031
691.8	0.0916	0.091281032	0.000318968
691.84	0.09323	0.091281032	0.001948968
691.88	0.09323	0.091281033	0.001948967
691.92	0.09354	0.091281033	0.002258967
691.96	0.09359	0.091281034	0.002308966
692	0.08951	0.091281034	-0.001771034
692.04	0.09517	0.091281035	0.003888965
692.08	0.08931	0.091281035	-0.001971035
692.12	0.09155	0.091281036	0.000268964
692.16	0.0942	0.091281036	0.002918964
692.2	0.09822	0.091281037	0.006938963
692.24	0.09797	0.091281037	0.006688963
692.28	0.09522	0.091281038	0.003938962
692.32	0.09038	0.091281038	-0.000901038
692.36	0.08829	0.091281038	-0.002991038
692.4	0.09247	0.091281039	0.001188961
692.44	0.09155	0.091281039	0.000268961
692.48	0.09425	0.09128104	0.00296896
692.52	0.0885	0.09128104	-0.00278104
692.56	0.08844	0.091281041	-0.002841041
692.6	0.09705	0.091281041	0.005768959
692.64	0.0943	0.091281042	0.003018958
692.68	0.0913	0.091281042	1.89578E-05
692.72	0.09231	0.091281043	0.001028957
692.76	0.08839	0.091281043	-0.002891043
692.8	0.09323	0.091281044	0.001948956
692.84	0.09338	0.091281044	0.002098956
692.88	0.08778	0.091281045	-0.003501045
692.92	0.09236	0.091281045	0.001078955
692.96	0.09501	0.091281046	0.003728954
693	0.09053	0.091281046	-0.000751046
693.04	0.08763	0.091281046	-0.003651046
693.08	0.0886	0.091281047	-0.002681047
693.12	0.08834	0.091281047	-0.002941047
693.16	0.08809	0.091281048	-0.003191048
693.2	0.08951	0.091281048	-0.001771048
693.24	0.08753	0.091281049	-0.003751049
693.28	0.0914	0.091281049	0.000118951
693.32	0.09135	0.09128105	6.89502E-05
693.36	0.09333	0.09128105	0.00204895
693.4	0.09155	0.091281051	0.000268949
693.44	0.09155	0.091281051	0.000268949
693.48	0.08692	0.091281052	-0.004361052
693.52	0.08488	0.091281052	-0.006401052
693.56	0.09048	0.091281053	-0.000801053
693.6	0.09506	0.091281053	0.003778947
693.64	0.08865	0.091281054	-0.002631054
693.68	0.09705	0.091281054	0.005768946
693.72	0.0969	0.091281054	0.005618946
693.76	0.08748	0.091281055	-0.003801055
693.8	0.08946	0.091281055	-0.001821055
693.84	0.08839	0.091281056	-0.002891056
693.88	0.09354	0.091281056	0.002258944
693.92	0.08936	0.091281057	-0.001921057
693.96	0.0916	0.091281057	0.000318943
694	0.08962	0.091281058	-0.001661058
694.04	0.08967	0.091281058	-0.001611058
694.08	0.09511	0.091281059	0.003828941
694.12	0.08951	0.091281059	-0.001771059
694.16	0.09323	0.09128106	0.00194894
694.2	0.09221	0.09128106	0.00092894
694.24	0.08585	0.091281061	-0.005431061
694.28	0.0941	0.091281061	0.002818939
694.32	0.09425	0.091281062	0.002968938
694.36	0.08956	0.091281062	-0.001721062
694.4	0.09068	0.091281062	-0.000601062
694.44	0.09618	0.091281063	0.004898937
694.48	0.09043	0.091281063	-0.000851063
694.52	0.09048	0.091281064	-0.000801064
694.56	0.09705	0.091281064	0.005768936
694.6	0.0973	0.091281065	0.006018935
694.64	0.09522	0.091281065	0.003938935
694.68	0.09231	0.091281066	0.001028934
694.72	0.09221	0.091281066	0.000928934
694.76	0.09216	0.091281067	0.000878933
694.8	0.09715	0.091281067	0.005868933
694.84	0.09415	0.091281068	0.002868932
694.88	0.09517	0.091281068	0.003888932
694.92	0.09517	0.091281069	0.003888931
694.96	0.09043	0.091281069	-0.000851069
695	0.0969	0.09128107	0.00561893
695.04	0.09135	0.09128107	6.893E-05
695.08	0.09725	0.09128107	0.00596893
695.12	0.09033	0.091281071	-0.000951071
695.16	0.0942	0.091281071	0.002918929
695.2	0.09425	0.091281072	0.002968928
695.24	0.09389	0.091281072	0.002608928
695.28	0.09629	0.091281073	0.005008927
695.32	0.097	0.091281073	0.005718927
695.36	0.09496	0.091281074	0.003678926
695.4	0.09415	0.091281074	0.002868926
695.44	0.09333	0.091281075	0.002048925
695.48	0.09323	0.091281075	0.001948925
695.52	0.09369	0.091281076	0.002408924
695.56	0.08941	0.091281076	-0.001871076
695.6	0.08865	0.091281077	-0.002631077
695.64	0.0915	0.091281077	0.000218923
695.68	0.09506	0.091281078	0.003778922
695.72	0.09435	0.091281078	0.003068922
695.76	0.09506	0.091281078	0.003778922
695.8	0.09517	0.091281079	0.003888921
695.84	0.09517	0.091281079	0.003888921
695.88	0.09527	0.09128108	0.00398892
695.92	0.0943	0.09128108	0.00301892
695.96	0.08799	0.091281081	-0.003291081
696	0.08753	0.091281081	-0.003751081
696.04	0.08773	0.091281082	-0.003551082
696.08	0.08763	0.091281082	-0.003651082
696.12	0.09155	0.091281083	0.000268917
696.16	0.09883	0.091281083	0.007548917
696.2	0.09216	0.091281084	0.000878916
696.24	0.08946	0.091281084	-0.001821084
696.28	0.09333	0.091281085	0.002048915
696.32	0.08962	0.091281085	-0.001661085
696.36	0.09221	0.091281086	0.000928914
696.4	0.09216	0.091281086	0.000878914
696.44	0.09705	0.091281086	0.005768914
696.48	0.0943	0.091281087	0.003018913
696.52	0.09023	0.091281087	-0.001051087
696.56	0.09216	0.091281088	0.000878912
696.6	0.09343	0.091281088	0.002148912
696.64	0.09613	0.091281089	0.004848911
696.68	0.09613	0.091281089	0.004848911
696.72	0.09812	0.09128109	0.00683891
696.76	0.09242	0.09128109	0.00113891
696.8	0.0942	0.091281091	0.002918909
696.84	0.0942	0.091281091	0.002918909
696.88	0.09028	0.091281092	-0.001001092
696.92	0.09226	0.091281092	0.000978908
696.96	0.09211	0.091281093	0.000828907
697	0.09741	0.091281093	0.006128907
697.04	0.09058	0.091281093	-0.000701093
697.08	0.09033	0.091281094	-0.000951094
697.12	0.09338	0.091281094	0.002098906
697.16	0.0915	0.091281095	0.000218905
697.2	0.0999	0.091281095	0.008618905
697.24	0.08926	0.091281096	-0.002021096
697.28	0.08946	0.091281096	-0.001821096
697.32	0.09929	0.091281097	0.008008903
697.36	0.09226	0.091281097	0.000978903
697.4	0.08763	0.091281098	-0.003651098
697.44	0.09511	0.091281098	0.003828902
697.48	0.09415	0.091281099	0.002868901
697.52	0.09415	0.091281099	0.002868901
697.56	0.0945	0.0912811	0.0032189
697.6	0.09145	0.0912811	0.0001689
697.64	0.08951	0.091281101	-0.001771101
697.68	0.08702	0.091281101	-0.004261101
697.72	0.09333	0.091281101	0.002048899
697.76	0.09216	0.091281102	0.000878898
697.8	0.08763	0.091281102	-0.003651102
697.84	0.08763	0.091281103	-0.003651103
697.88	0.09435	0.091281103	0.003068897
697.92	0.08844	0.091281104	-0.002841104
697.96	0.09517	0.091281104	0.003888896
698	0.08931	0.091281105	-0.001971105
698.04	0.08977	0.091281105	-0.001511105
698.08	0.09063	0.091281106	-0.000651106
698.12	0.0944	0.091281106	0.003118894
698.16	0.09445	0.091281107	0.003168893
698.2	0.09058	0.091281107	-0.000701107
698.24	0.09058	0.091281108	-0.000701108
698.28	0.08666	0.091281108	-0.004621108
698.32	0.08829	0.091281109	-0.002991109
698.36	0.09043	0.091281109	-0.000851109
698.4	0.09226	0.091281109	0.000978891
698.44	0.09236	0.09128111	0.00107889
698.48	0.09506	0.09128111	0.00377889
698.52	0.09165	0.091281111	0.000368889
698.56	0.09048	0.091281111	-0.000801111
698.6	0.09695	0.091281112	0.005668888
698.64	0.09236	0.091281112	0.001078888
698.68	0.10021	0.091281113	0.008928887
698.72	0.09135	0.091281113	6.88868E-05
698.76	0.0916	0.091281114	0.000318886
698.8	0.08585	0.091281114	-0.005431114
698.84	0.09155	0.091281115	0.000268885
698.88	0.09608	0.091281115	0.004798885
698.92	0.08967	0.091281116	-0.001611116
698.96	0.09511	0.091281116	0.003828884
699	0.09038	0.091281117	-0.000901117
699.04	0.09058	0.091281117	-0.000701117
699.08	0.08962	0.091281117	-0.001661117
699.12	0.09058	0.091281118	-0.000701118
699.16	0.09058	0.091281118	-0.000701118
699.2	0.0915	0.091281119	0.000218881
699.24	0.09216	0.091281119	0.000878881
699.28	0.0971	0.09128112	0.00581888
699.32	0.097	0.09128112	0.00571888
699.36	0.09435	0.091281121	0.003068879
699.4	0.09705	0.091281121	0.005768879
699.44	0.09236	0.091281122	0.001078878
699.48	0.09226	0.091281122	0.000978878
699.52	0.09033	0.091281123	-0.000951123
699.56	0.09445	0.091281123	0.003168877
699.6	0.09522	0.091281124	0.003938876
699.64	0.09522	0.091281124	0.003938876
699.68	0.09206	0.091281125	0.000778875
699.72	0.09018	0.091281125	-0.001101125
699.76	0.09247	0.091281125	0.001188875
699.8	0.09023	0.091281126	-0.001051126
699.84	0.09247	0.091281126	0.001188874
699.88	0.09145	0.091281127	0.000168873
699.92	0.09135	0.091281127	6.88727E-05
699.96	0.0944	0.091281128	0.003118872