f	m	t	
	1.17102E-08	0.0866534	
			
			
X in nm	Y Signal 	f	y-f
625.04	0.09058	0.086660719	0.003919281
625.08	0.08478	0.08666072	-0.00188072
625.12	0.08768	0.08666072	0.00101928
625.16	0.08575	0.086660721	-0.000910721
625.2	0.08656	0.086660721	-0.000100721
625.24	0.08676	0.086660722	9.92783E-05
625.28	0.09226	0.086660722	0.005599278
625.32	0.08656	0.086660723	-0.000100723
625.36	0.08391	0.086660723	-0.002750723
625.4	0.08585	0.086660724	-0.000810724
625.44	0.08519	0.086660724	-0.001470724
625.48	0.08325	0.086660724	-0.003410724
625.52	0.083	0.086660725	-0.003660725
625.56	0.08676	0.086660725	9.92746E-05
625.6	0.09043	0.086660726	0.003769274
625.64	0.08458	0.086660726	-0.002080726
625.68	0.08921	0.086660727	0.002549273
625.72	0.08575	0.086660727	-0.000910727
625.76	0.08671	0.086660728	4.92722E-05
625.8	0.07999	0.086660728	-0.006670728
625.84	0.07999	0.086660729	-0.006670729
625.88	0.08442	0.086660729	-0.002240729
625.92	0.08768	0.08666073	0.00101927
625.96	0.08514	0.08666073	-0.00152073
626	0.0803	0.086660731	-0.006360731
626.04	0.08473	0.086660731	-0.001930731
626.08	0.0858	0.086660732	-0.000860732
626.12	0.08595	0.086660732	-0.000710732
626.16	0.08855	0.086660732	0.001889268
626.2	0.08488	0.086660733	-0.001780733
626.24	0.08177	0.086660733	-0.004890733
626.28	0.08295	0.086660734	-0.003710734
626.32	0.08758	0.086660734	0.000919266
626.36	0.08676	0.086660735	9.92652E-05
626.4	0.08676	0.086660735	9.92647E-05
626.44	0.09247	0.086660736	0.005809264
626.48	0.08564	0.086660736	-0.001020736
626.52	0.0885	0.086660737	0.001839263
626.56	0.08493	0.086660737	-0.001730737
626.6	0.08661	0.086660738	-5.07376E-05
626.64	0.09068	0.086660738	0.004019262
626.68	0.09063	0.086660739	0.003969261
626.72	0.09033	0.086660739	0.003669261
626.76	0.08458	0.086660739	-0.002080739
626.8	0.08829	0.08666074	0.00162926
626.84	0.08743	0.08666074	0.00076926
626.88	0.08936	0.086660741	0.002699259
626.92	0.0942	0.086660741	0.007539259
626.96	0.09038	0.086660742	0.003719258
627	0.09053	0.086660742	0.003869258
627.04	0.08844	0.086660743	0.001779257
627.08	0.08687	0.086660743	0.000209257
627.12	0.09058	0.086660744	0.003919256
627.16	0.08687	0.086660744	0.000209256
627.2	0.08844	0.086660745	0.001779255
627.24	0.09221	0.086660745	0.005549255
627.28	0.09236	0.086660746	0.005699254
627.32	0.08753	0.086660746	0.000869254
627.36	0.09033	0.086660747	0.003669253
627.4	0.0886	0.086660747	0.001939253
627.44	0.09119	0.086660747	0.004529253
627.48	0.09333	0.086660748	0.006669252
627.52	0.09236	0.086660748	0.005699252
627.56	0.09058	0.086660749	0.003919251
627.6	0.09074	0.086660749	0.004079251
627.64	0.09425	0.08666075	0.00758925
627.68	0.0916	0.08666075	0.00493925
627.72	0.09639	0.086660751	0.009729249
627.76	0.09399	0.086660751	0.007329249
627.8	0.09231	0.086660752	0.005649248
627.84	0.10015	0.086660752	0.013489248
627.88	0.09985	0.086660753	0.013189247
627.92	0.09517	0.086660753	0.008509247
627.96	0.09496	0.086660754	0.008299246
628	0.09333	0.086660754	0.006669246
628.04	0.09257	0.086660754	0.005909246
628.08	0.09924	0.086660755	0.012579245
628.12	0.09461	0.086660755	0.007949245
628.16	0.09995	0.086660756	0.013289244
628.2	0.09995	0.086660756	0.013289244
628.24	0.10158	0.086660757	0.014919243
628.28	0.09919	0.086660757	0.012529243
628.32	0.09608	0.086660758	0.009419242
628.36	0.09618	0.086660758	0.009519242
628.4	0.09634	0.086660759	0.009679241
628.44	0.1029	0.086660759	0.016239241
628.48	0.10321	0.08666076	0.01654924
628.52	0.1028	0.08666076	0.01613924
628.56	0.10178	0.086660761	0.015119239
628.6	0.10275	0.086660761	0.016089239
628.64	0.09817	0.086660762	0.011509238
628.68	0.09715	0.086660762	0.010489238
628.72	0.09995	0.086660762	0.013289238
628.76	0.1001	0.086660763	0.013439237
628.8	0.0971	0.086660763	0.010439237
628.84	0.09797	0.086660764	0.011309236
628.88	0.09608	0.086660764	0.009419236
628.92	0.09359	0.086660765	0.006929235
628.96	0.09608	0.086660765	0.009419235
629	0.09608	0.086660766	0.009419234
629.04	0.0941	0.086660766	0.007439234
629.08	0.09415	0.086660767	0.007489233
629.12	0.09242	0.086660767	0.005759233
629.16	0.09705	0.086660768	0.010389232
629.2	0.09629	0.086660768	0.009629232
629.24	0.09155	0.086660769	0.004889231
629.28	0.0941	0.086660769	0.007439231
629.32	0.09822	0.086660769	0.011559231
629.36	0.09807	0.08666077	0.01140923
629.4	0.09328	0.08666077	0.00661923
629.44	0.09058	0.086660771	0.003919229
629.48	0.0859	0.086660771	-0.000760771
629.52	0.09165	0.086660772	0.004989228
629.56	0.08844	0.086660772	0.001779228
629.6	0.0858	0.086660773	-0.000860773
629.64	0.08595	0.086660773	-0.000710773
629.68	0.08768	0.086660774	0.001019226
629.72	0.08946	0.086660774	0.002799226
629.76	0.0859	0.086660775	-0.000760775
629.8	0.0859	0.086660775	-0.000760775
629.84	0.08412	0.086660776	-0.002540776
629.88	0.08575	0.086660776	-0.000910776
629.92	0.08468	0.086660776	-0.001980776
629.96	0.08478	0.086660777	-0.001880777
630	0.0859	0.086660777	-0.000760777
630.04	0.0885	0.086660778	0.001839222
630.08	0.08666	0.086660778	-7.78363E-07
630.12	0.08295	0.086660779	-0.003710779
630.16	0.08687	0.086660779	0.000209221
630.2	0.08687	0.08666078	0.00020922
630.24	0.08666	0.08666078	-7.80236E-07
630.28	0.0886	0.086660781	0.001939219
630.32	0.08289	0.086660781	-0.003770781
630.36	0.08009	0.086660782	-0.006570782
630.4	0.08289	0.086660782	-0.003770782
630.44	0.08656	0.086660783	-0.000100783
630.48	0.08972	0.086660783	0.003059217
630.52	0.07877	0.086660784	-0.007890784
630.56	0.07897	0.086660784	-0.007690784
630.6	0.08514	0.086660784	-0.001520784
630.64	0.08488	0.086660785	-0.001780785
630.68	0.08676	0.086660785	9.92146E-05
630.72	0.08478	0.086660786	-0.001880786
630.76	0.07831	0.086660786	-0.008350786
630.8	0.08687	0.086660787	0.000209213
630.84	0.08651	0.086660787	-0.000150787
630.88	0.08264	0.086660788	-0.004020788
630.92	0.08855	0.086660788	0.001889212
630.96	0.08575	0.086660789	-0.000910789
631	0.08177	0.086660789	-0.004890789
631.04	0.09145	0.08666079	0.00478921
631.08	0.08289	0.08666079	-0.00377079
631.12	0.083	0.086660791	-0.003660791
631.16	0.08106	0.086660791	-0.005600791
631.2	0.08773	0.086660791	0.001069209
631.24	0.08697	0.086660792	0.000309208
631.28	0.08381	0.086660792	-0.002850792
631.32	0.08605	0.086660793	-0.000610793
631.36	0.09043	0.086660793	0.003769207
631.4	0.0915	0.086660794	0.004839206
631.44	0.0915	0.086660794	0.004839206
631.48	0.08564	0.086660795	-0.001020795
631.52	0.09527	0.086660795	0.008609205
631.56	0.08564	0.086660796	-0.001020796
631.6	0.0914	0.086660796	0.004739204
631.64	0.08941	0.086660797	0.002749203
631.68	0.09501	0.086660797	0.008349203
631.72	0.09532	0.086660798	0.008659202
631.76	0.09348	0.086660798	0.006819202
631.8	0.09613	0.086660799	0.009469201
631.84	0.09914	0.086660799	0.012479201
631.88	0.09425	0.086660799	0.007589201
631.92	0.09155	0.0866608	0.0048892
631.96	0.10469	0.0866608	0.0180292
632	0.10448	0.086660801	0.017819199
632.04	0.10749	0.086660801	0.020829199
632.08	0.10362	0.086660802	0.016959198
632.12	0.10178	0.086660802	0.015119198
632.16	0.10545	0.086660803	0.018789197
632.2	0.10082	0.086660803	0.014159197
632.24	0.10759	0.086660804	0.020929196
632.28	0.10942	0.086660804	0.022759196
632.32	0.10917	0.086660805	0.022509195
632.36	0.10377	0.086660805	0.017109195
632.4	0.10632	0.086660806	0.019659194
632.44	0.10733	0.086660806	0.020669194
632.48	0.10932	0.086660806	0.022659194
632.52	0.10576	0.086660807	0.019099193
632.56	0.10957	0.086660807	0.022909193
632.6	0.10927	0.086660808	0.022609192
632.64	0.10565	0.086660808	0.018989192
632.68	0.1083	0.086660809	0.021639191
632.72	0.10937	0.086660809	0.022709191
632.76	0.09888	0.08666081	0.01221919
632.8	0.10565	0.08666081	0.01898919
632.84	0.10652	0.086660811	0.019859189
632.88	0.09425	0.086660811	0.007589189
632.92	0.0942	0.086660812	0.007539188
632.96	0.10352	0.086660812	0.016859188
633	0.10087	0.086660813	0.014209187
633.04	0.0998	0.086660813	0.013139187
633.08	0.09685	0.086660813	0.010189187
633.12	0.0998	0.086660814	0.013139186
633.16	0.09919	0.086660814	0.012529186
633.2	0.09888	0.086660815	0.012219185
633.24	0.0941	0.086660815	0.007439185
633.28	0.09822	0.086660816	0.011559184
633.32	0.09155	0.086660816	0.004889184
633.36	0.09435	0.086660817	0.007689183
633.4	0.09236	0.086660817	0.005699183
633.44	0.08687	0.086660818	0.000209182
633.48	0.08687	0.086660818	0.000209182
633.52	0.08585	0.086660819	-0.000810819
633.56	0.0942	0.086660819	0.007539181
633.6	0.08391	0.08666082	-0.00275082
633.64	0.08977	0.08666082	0.00310918
633.68	0.08575	0.086660821	-0.000910821
633.72	0.08386	0.086660821	-0.002800821
633.76	0.08493	0.086660821	-0.001730821
633.8	0.08488	0.086660822	-0.001780822
633.84	0.08488	0.086660822	-0.001780822
633.88	0.08763	0.086660823	0.000969177
633.92	0.08289	0.086660823	-0.003770823
633.96	0.08274	0.086660824	-0.003920824
634	0.08559	0.086660824	-0.001070824
634.04	0.08381	0.086660825	-0.002850825
634.08	0.08391	0.086660825	-0.002750825
634.12	0.08193	0.086660826	-0.004730826
634.16	0.08855	0.086660826	0.001889174
634.2	0.08575	0.086660827	-0.000910827
634.24	0.08396	0.086660827	-0.002700827
634.28	0.08381	0.086660828	-0.002850828
634.32	0.08493	0.086660828	-0.001730828
634.36	0.08478	0.086660828	-0.001880828
634.4	0.08493	0.086660829	-0.001730829
634.44	0.08575	0.086660829	-0.000910829
634.48	0.08844	0.08666083	0.00177917
634.52	0.08315	0.08666083	-0.00351083
634.56	0.08315	0.086660831	-0.003510831
634.6	0.08544	0.086660831	-0.001220831
634.64	0.08865	0.086660832	0.001989168
634.68	0.0885	0.086660832	0.001839168
634.72	0.0859	0.086660833	-0.000760833
634.76	0.08773	0.086660833	0.001069167
634.8	0.08096	0.086660834	-0.005700834
634.84	0.08951	0.086660834	0.002849166
634.88	0.08773	0.086660835	0.001069165
634.92	0.0859	0.086660835	-0.000760835
634.96	0.08585	0.086660836	-0.000810836
635	0.08284	0.086660836	-0.003820836
635.04	0.0889	0.086660836	0.002239164
635.08	0.07897	0.086660837	-0.007690837
635.12	0.08396	0.086660837	-0.002700837
635.16	0.08478	0.086660838	-0.001880838
635.2	0.08946	0.086660838	0.002799162
635.24	0.08926	0.086660839	0.002599161
635.28	0.08656	0.086660839	-0.000100839
635.32	0.09028	0.08666084	0.00361916
635.36	0.08829	0.08666084	0.00162916
635.4	0.08177	0.086660841	-0.004890841
635.44	0.083	0.086660841	-0.003660841
635.48	0.08585	0.086660842	-0.000810842
635.52	0.08188	0.086660842	-0.004780842
635.56	0.08208	0.086660843	-0.004580843
635.6	0.0857	0.086660843	-0.000960843
635.64	0.0859	0.086660843	-0.000760843
635.68	0.08575	0.086660844	-0.000910844
635.72	0.08289	0.086660844	-0.003770844
635.76	0.08595	0.086660845	-0.000710845
635.8	0.08498	0.086660845	-0.001680845
635.84	0.08478	0.086660846	-0.001880846
635.88	0.08483	0.086660846	-0.001830846
635.92	0.08396	0.086660847	-0.002700847
635.96	0.08447	0.086660847	-0.002190847
636	0.08193	0.086660848	-0.004730848
636.04	0.08101	0.086660848	-0.005650848
636.08	0.08768	0.086660849	0.001019151
636.12	0.08687	0.086660849	0.000209151
636.16	0.08661	0.08666085	-5.08496E-05
636.2	0.08473	0.08666085	-0.00193085
636.24	0.08183	0.08666085	-0.00483085
636.28	0.08289	0.086660851	-0.003770851
636.32	0.08279	0.086660851	-0.003870851
636.36	0.08366	0.086660852	-0.003000852
636.4	0.08101	0.086660852	-0.005650852
636.44	0.08106	0.086660853	-0.005600853
636.48	0.08773	0.086660853	0.001069147
636.52	0.0857	0.086660854	-0.000960854
636.56	0.08412	0.086660854	-0.002540854
636.6	0.08203	0.086660855	-0.004630855
636.64	0.08188	0.086660855	-0.004780855
636.68	0.08595	0.086660856	-0.000710856
636.72	0.0858	0.086660856	-0.000860856
636.76	0.086	0.086660857	-0.000660857
636.8	0.08564	0.086660857	-0.001020857
636.84	0.08839	0.086660858	0.001729142
636.88	0.08972	0.086660858	0.003059142
636.92	0.08386	0.086660858	-0.002800858
636.96	0.0861	0.086660859	-0.000560859
637	0.08473	0.086660859	-0.001930859
637.04	0.08498	0.08666086	-0.00168086
637.08	0.08788	0.08666086	0.00121914
637.12	0.08096	0.086660861	-0.005700861
637.16	0.08284	0.086660861	-0.003820861
637.2	0.08564	0.086660862	-0.001020862
637.24	0.08468	0.086660862	-0.001980862
637.28	0.08656	0.086660863	-0.000100863
637.32	0.08656	0.086660863	-0.000100863
637.36	0.08778	0.086660864	0.001119136
637.4	0.09028	0.086660864	0.003619136
637.44	0.08758	0.086660865	0.000919135
637.48	0.08692	0.086660865	0.000259135
637.52	0.08412	0.086660865	-0.002540865
637.56	0.08208	0.086660866	-0.004580866
637.6	0.08193	0.086660866	-0.004730866
637.64	0.08284	0.086660867	-0.003820867
637.68	0.08081	0.086660867	-0.005850867
637.72	0.08508	0.086660868	-0.001580868
637.76	0.0885	0.086660868	0.001839132
637.8	0.08493	0.086660869	-0.001730869
637.84	0.08463	0.086660869	-0.002030869
637.88	0.08289	0.08666087	-0.00377087
637.92	0.08289	0.08666087	-0.00377087
637.96	0.08025	0.086660871	-0.006410871
638	0.08758	0.086660871	0.000919129
638.04	0.08483	0.086660872	-0.001830872
638.08	0.08381	0.086660872	-0.002850872
638.12	0.08763	0.086660873	0.000969127
638.16	0.08091	0.086660873	-0.005750873
638.2	0.08111	0.086660873	-0.005550873
638.24	0.0833	0.086660874	-0.003360874
638.28	0.08371	0.086660874	-0.002950874
638.32	0.086	0.086660875	-0.000660875
638.36	0.08391	0.086660875	-0.002750875
638.4	0.08936	0.086660876	0.002699124
638.44	0.08834	0.086660876	0.001679124
638.48	0.0885	0.086660877	0.001839123
638.52	0.08844	0.086660877	0.001779123
638.56	0.08208	0.086660878	-0.004580878
638.6	0.08488	0.086660878	-0.001780878
638.64	0.08946	0.086660879	0.002799121
638.68	0.08407	0.086660879	-0.002590879
638.72	0.08498	0.08666088	-0.00168088
638.76	0.08183	0.08666088	-0.00483088
638.8	0.08183	0.08666088	-0.00483088
638.84	0.08483	0.086660881	-0.001830881
638.88	0.08493	0.086660881	-0.001730881
638.92	0.0858	0.086660882	-0.000860882
638.96	0.08758	0.086660882	0.000919118
639	0.09053	0.086660883	0.003869117
639.04	0.08855	0.086660883	0.001889117
639.08	0.0888	0.086660884	0.002139116
639.12	0.08753	0.086660884	0.000869116
639.16	0.0858	0.086660885	-0.000860885
639.2	0.08768	0.086660885	0.001019115
639.24	0.08824	0.086660886	0.001579114
639.28	0.08676	0.086660886	9.91139E-05
639.32	0.08758	0.086660887	0.000919113
639.36	0.08468	0.086660887	-0.001980887
639.4	0.08483	0.086660888	-0.001830888
639.44	0.09063	0.086660888	0.003969112
639.48	0.09328	0.086660888	0.006619112
639.52	0.08488	0.086660889	-0.001780889
639.56	0.08956	0.086660889	0.002899111
639.6	0.08478	0.08666089	-0.00188089
639.64	0.08676	0.08666089	9.91097E-05
639.68	0.08697	0.086660891	0.000309109
639.72	0.08463	0.086660891	-0.002030891
639.76	0.08544	0.086660892	-0.001220892
639.8	0.0858	0.086660892	-0.000860892
639.84	0.09028	0.086660893	0.003619107
639.88	0.08376	0.086660893	-0.002900893
639.92	0.08483	0.086660894	-0.001830894
639.96	0.08478	0.086660894	-0.001880894
640	0.08783	0.086660895	0.001169105
640.04	0.08844	0.086660895	0.001779105
640.08	0.08855	0.086660895	0.001889105
640.12	0.08865	0.086660896	0.001989104
640.16	0.08671	0.086660896	4.91036E-05
640.2	0.08407	0.086660897	-0.002590897
640.24	0.08676	0.086660897	9.91027E-05
640.28	0.08671	0.086660898	4.91022E-05
640.32	0.08503	0.086660898	-0.001630898
640.36	0.08773	0.086660899	0.001069101
640.4	0.09048	0.086660899	0.003819101
640.44	0.08987	0.0866609	0.0032091
640.48	0.08839	0.0866609	0.0017291
640.52	0.08636	0.086660901	-0.000300901
640.56	0.08646	0.086660901	-0.000200901
640.6	0.08483	0.086660902	-0.001830902
640.64	0.0885	0.086660902	0.001839098
640.68	0.09053	0.086660902	0.003869098
640.72	0.09165	0.086660903	0.004989097
640.76	0.08407	0.086660903	-0.002590903
640.8	0.08493	0.086660904	-0.001730904
640.84	0.08941	0.086660904	0.002749096
640.88	0.08956	0.086660905	0.002899095
640.92	0.08748	0.086660905	0.000819095
640.96	0.09231	0.086660906	0.005649094
641	0.08687	0.086660906	0.000209094
641.04	0.09033	0.086660907	0.003669093
641.08	0.08824	0.086660907	0.001579093
641.12	0.08794	0.086660908	0.001279092
641.16	0.08773	0.086660908	0.001069092
641.2	0.086	0.086660909	-0.000660909
641.24	0.08962	0.086660909	0.002959091
641.28	0.08758	0.08666091	0.00091909
641.32	0.08946	0.08666091	0.00279909
641.36	0.08783	0.08666091	0.00116909
641.4	0.08753	0.086660911	0.000869089
641.44	0.08778	0.086660911	0.001119089
641.48	0.08931	0.086660912	0.002649088
641.52	0.0858	0.086660912	-0.000860912
641.56	0.09323	0.086660913	0.006569087
641.6	0.09216	0.086660913	0.005499087
641.64	0.08936	0.086660914	0.002699086
641.68	0.09053	0.086660914	0.003869086
641.72	0.09623	0.086660915	0.009569085
641.76	0.09608	0.086660915	0.009419085
641.8	0.09425	0.086660916	0.007589084
641.84	0.09048	0.086660916	0.003819084
641.88	0.0972	0.086660917	0.010539083
641.92	0.09343	0.086660917	0.006769083
641.96	0.09231	0.086660917	0.005649083
642	0.09822	0.086660918	0.011559082
642.04	0.09827	0.086660918	0.011609082
642.08	0.0944	0.086660919	0.007739081
642.12	0.09786	0.086660919	0.011199081
642.16	0.10189	0.08666092	0.01522908
642.2	0.10387	0.08666092	0.01720908
642.24	0.10565	0.086660921	0.018989079
642.28	0.10377	0.086660921	0.017109079
642.32	0.10387	0.086660922	0.017209078
642.36	0.10749	0.086660922	0.020829078
642.4	0.11421	0.086660923	0.027549077
642.44	0.11894	0.086660923	0.032279077
642.48	0.12149	0.086660924	0.034829076
642.52	0.12154	0.086660924	0.034879076
642.56	0.13004	0.086660925	0.043379075
642.6	0.13289	0.086660925	0.046229075
642.64	0.13284	0.086660925	0.046179075
642.68	0.14328	0.086660926	0.056619074
642.72	0.15071	0.086660926	0.064049074
642.76	0.15652	0.086660927	0.069859073
642.8	0.15275	0.086660927	0.066089073
642.84	0.1697	0.086660928	0.083039072
642.88	0.16716	0.086660928	0.080499072
642.92	0.1668	0.086660929	0.080139071
642.96	0.17897	0.086660929	0.092309071
643	0.18671	0.08666093	0.10004907
643.04	0.18401	0.08666093	0.09734907
643.08	0.18554	0.086660931	0.098879069
643.12	0.19409	0.086660931	0.107429069
643.16	0.2	0.086660932	0.113339068
643.2	0.19175	0.086660932	0.105089068
643.24	0.19149	0.086660932	0.104829068
643.28	0.19261	0.086660933	0.105949067
643.32	0.20091	0.086660933	0.114249067
643.36	0.19989	0.086660934	0.113229066
643.4	0.19526	0.086660934	0.108599066
643.44	0.19058	0.086660935	0.103919065
643.48	0.18773	0.086660935	0.101069065
643.52	0.18762	0.086660936	0.100959064
643.56	0.19429	0.086660936	0.107629064
643.6	0.18381	0.086660937	0.097149063
643.64	0.17709	0.086660937	0.090429063
643.68	0.17907	0.086660938	0.092409062
643.72	0.1669	0.086660938	0.080239062
643.76	0.16227	0.086660939	0.075609061
643.8	0.16222	0.086660939	0.075559061
643.84	0.15937	0.086660939	0.072709061
643.88	0.15265	0.08666094	0.06598906
643.92	0.14165	0.08666094	0.05498906
643.96	0.14613	0.086660941	0.059469059
644	0.13503	0.086660941	0.048369059
644.04	0.13116	0.086660942	0.044499058
644.08	0.12256	0.086660942	0.035899058
644.12	0.1224	0.086660943	0.035739057
644.16	0.11492	0.086660943	0.028259057
644.2	0.114	0.086660944	0.027339056
644.24	0.11029	0.086660944	0.023629056
644.28	0.11034	0.086660945	0.023679055
644.32	0.09965	0.086660945	0.012989055
644.36	0.10372	0.086660946	0.017059054
644.4	0.10372	0.086660946	0.017059054
644.44	0.10005	0.086660947	0.013389053
644.48	0.0942	0.086660947	0.007539053
644.52	0.10015	0.086660947	0.013489053
644.56	0.09155	0.086660948	0.004889052
644.6	0.09221	0.086660948	0.005549052
644.64	0.097	0.086660949	0.010339051
644.68	0.0969	0.086660949	0.010239051
644.72	0.08916	0.08666095	0.00249905
644.76	0.09812	0.08666095	0.01145905
644.8	0.08977	0.086660951	0.003109049
644.84	0.08198	0.086660951	-0.004680951
644.88	0.09236	0.086660952	0.005699048
644.92	0.08946	0.086660952	0.002799048
644.96	0.09038	0.086660953	0.003719047
645	0.09058	0.086660953	0.003919047
645.04	0.08967	0.086660954	0.003009046
645.08	0.0857	0.086660954	-0.000960954
645.12	0.08401	0.086660954	-0.002650954
645.16	0.08483	0.086660955	-0.001830955
645.2	0.08855	0.086660955	0.001889045
645.24	0.0914	0.086660956	0.004739044
645.28	0.0915	0.086660956	0.004839044
645.32	0.08814	0.086660957	0.001479043
645.36	0.08865	0.086660957	0.001989043
645.4	0.08941	0.086660958	0.002749042
645.44	0.08687	0.086660958	0.000209042
645.48	0.09221	0.086660959	0.005549041
645.52	0.08941	0.086660959	0.002749041
645.56	0.08682	0.08666096	0.00015904
645.6	0.08651	0.08666096	-0.00015096
645.64	0.08941	0.086660961	0.002749039
645.68	0.08936	0.086660961	0.002699039
645.72	0.08651	0.086660962	-0.000150962
645.76	0.08931	0.086660962	0.002649038
645.8	0.0914	0.086660962	0.004739038
645.84	0.08788	0.086660963	0.001219037
645.88	0.08763	0.086660963	0.000969037
645.92	0.08951	0.086660964	0.002849036
645.96	0.08972	0.086660964	0.003059036
646	0.09313	0.086660965	0.006469035
646.04	0.08717	0.086660965	0.000509035
646.08	0.08936	0.086660966	0.002699034
646.12	0.08946	0.086660966	0.002799034
646.16	0.08941	0.086660967	0.002749033
646.2	0.08956	0.086660967	0.002899033
646.24	0.09303	0.086660968	0.006369032
646.28	0.09201	0.086660968	0.005349032
646.32	0.09155	0.086660969	0.004889031
646.36	0.08951	0.086660969	0.002849031
646.4	0.08671	0.086660969	4.90305E-05
646.44	0.09348	0.08666097	0.00681903
646.48	0.09333	0.08666097	0.00666903
646.52	0.09348	0.086660971	0.006819029
646.56	0.09247	0.086660971	0.005809029
646.6	0.09048	0.086660972	0.003819028
646.64	0.09323	0.086660972	0.006569028
646.68	0.09318	0.086660973	0.006519027
646.72	0.09603	0.086660973	0.009369027
646.76	0.09629	0.086660974	0.009629026
646.8	0.09588	0.086660974	0.009219026
646.84	0.09888	0.086660975	0.012219025
646.88	0.1	0.086660975	0.013339025
646.92	0.09532	0.086660976	0.008659024
646.96	0.10275	0.086660976	0.016089024
647	0.10555	0.086660976	0.018889024
647.04	0.1056	0.086660977	0.018939023
647.08	0.10545	0.086660977	0.018789023
647.12	0.11039	0.086660978	0.023729022
647.16	0.10912	0.086660978	0.022459022
647.2	0.11609	0.086660979	0.029429021
647.24	0.11777	0.086660979	0.031109021
647.28	0.12632	0.08666098	0.03965902
647.32	0.12088	0.08666098	0.03421902
647.36	0.12072	0.086660981	0.034059019
647.4	0.12653	0.086660981	0.039869019
647.44	0.1332	0.086660982	0.046539018
647.48	0.12531	0.086660982	0.038649018
647.52	0.13381	0.086660983	0.047149017
647.56	0.13386	0.086660983	0.047199017
647.6	0.13228	0.086660984	0.045619016
647.64	0.13203	0.086660984	0.045369016
647.68	0.12256	0.086660984	0.035899016
647.72	0.12347	0.086660985	0.036809015
647.76	0.13004	0.086660985	0.043379015
647.8	0.13376	0.086660986	0.047099014
647.84	0.12245	0.086660986	0.035789014
647.88	0.12821	0.086660987	0.041549013
647.92	0.12856	0.086660987	0.041899013
647.96	0.12337	0.086660988	0.036709012
648	0.12368	0.086660988	0.037019012
648.04	0.11772	0.086660989	0.031059011
648.08	0.11507	0.086660989	0.028409011
648.12	0.11416	0.08666099	0.02749901
648.16	0.11594	0.08666099	0.02927901
648.2	0.10647	0.086660991	0.019809009
648.24	0.10626	0.086660991	0.019599009
648.28	0.10453	0.086660991	0.017869009
648.32	0.10087	0.086660992	0.014209008
648.36	0.09786	0.086660992	0.011199008
648.4	0.10295	0.086660993	0.016289007
648.44	0.0972	0.086660993	0.010539007
648.48	0.0943	0.086660994	0.007639006
648.52	0.09435	0.086660994	0.007689006
648.56	0.09445	0.086660995	0.007789005
648.6	0.09018	0.086660995	0.003519005
648.64	0.09715	0.086660996	0.010489004
648.68	0.09613	0.086660996	0.009469004
648.72	0.09206	0.086660997	0.005399003
648.76	0.09033	0.086660997	0.003669003
648.8	0.08651	0.086660998	-0.000150998
648.84	0.08661	0.086660998	-5.0998E-05
648.88	0.08692	0.086660999	0.000259001
648.92	0.08977	0.086660999	0.003109001
648.96	0.09318	0.086660999	0.006519001
649	0.09226	0.086661	0.005599
649.04	0.08748	0.086661	0.000819
649.08	0.0916	0.086661001	0.004938999
649.12	0.09165	0.086661001	0.004988999
649.16	0.09231	0.086661002	0.005648998
649.2	0.08844	0.086661002	0.001778998
649.24	0.08951	0.086661003	0.002848997
649.28	0.0915	0.086661003	0.004838997
649.32	0.08844	0.086661004	0.001778996
649.36	0.08967	0.086661004	0.003008996
649.4	0.08962	0.086661005	0.002958995
649.44	0.08962	0.086661005	0.002958995
649.48	0.08682	0.086661006	0.000158994
649.52	0.08967	0.086661006	0.003008994
649.56	0.08855	0.086661006	0.001888994
649.6	0.08885	0.086661007	0.002188993
649.64	0.08768	0.086661007	0.001018993
649.68	0.08498	0.086661008	-0.001681008
649.72	0.08473	0.086661008	-0.001931008
649.76	0.08676	0.086661009	9.89912E-05
649.8	0.09313	0.086661009	0.006468991
649.84	0.08682	0.08666101	0.00015899
649.88	0.08396	0.08666101	-0.00270101
649.92	0.08763	0.086661011	0.000968989
649.96	0.08483	0.086661011	-0.001831011
650	0.08493	0.086661012	-0.001731012
650.04	0.09033	0.086661012	0.003668988
650.08	0.08666	0.086661013	-1.01257E-06
650.12	0.08386	0.086661013	-0.002801013
650.16	0.08676	0.086661014	9.89865E-05
650.2	0.08676	0.086661014	9.8986E-05
650.24	0.08585	0.086661014	-0.000811014
650.28	0.0858	0.086661015	-0.000861015
650.32	0.08967	0.086661015	0.003008985
650.36	0.08778	0.086661016	0.001118984
650.4	0.08926	0.086661016	0.002598984
650.44	0.09135	0.086661017	0.004688983
650.48	0.08941	0.086661017	0.002748983
650.52	0.08788	0.086661018	0.001218982
650.56	0.08666	0.086661018	-1.01819E-06
650.6	0.08687	0.086661019	0.000208981
650.64	0.08193	0.086661019	-0.004731019
650.68	0.08004	0.08666102	-0.00662102
650.72	0.08386	0.08666102	-0.00280102
650.76	0.08193	0.086661021	-0.004731021
650.8	0.0859	0.086661021	-0.000761021
650.84	0.09216	0.086661021	0.005498979
650.88	0.09221	0.086661022	0.005548978
650.92	0.08478	0.086661022	-0.001881022
650.96	0.08167	0.086661023	-0.004991023
651	0.08473	0.086661023	-0.001931023
651.04	0.08478	0.086661024	-0.001881024
651.08	0.0885	0.086661024	0.001838976
651.12	0.08417	0.086661025	-0.002491025
651.16	0.09038	0.086661025	0.003718975
651.2	0.09058	0.086661026	0.003918974
651.24	0.08096	0.086661026	-0.005701026
651.28	0.08386	0.086661027	-0.002801027
651.32	0.08381	0.086661027	-0.002851027
651.36	0.08585	0.086661028	-0.000811028
651.4	0.086	0.086661028	-0.000661028
651.44	0.08773	0.086661028	0.001068972
651.48	0.08768	0.086661029	0.001018971
651.52	0.08768	0.086661029	0.001018971
651.56	0.08391	0.08666103	-0.00275103
651.6	0.083	0.08666103	-0.00366103
651.64	0.08946	0.086661031	0.002798969
651.68	0.08967	0.086661031	0.003008969
651.72	0.09033	0.086661032	0.003668968
651.76	0.09038	0.086661032	0.003718968
651.8	0.08554	0.086661033	-0.001121033
651.84	0.0886	0.086661033	0.001938967
651.88	0.0859	0.086661034	-0.000761034
651.92	0.08188	0.086661034	-0.004781034
651.96	0.086	0.086661035	-0.000661035
652	0.08478	0.086661035	-0.001881035
652.04	0.08962	0.086661036	0.002958964
652.08	0.08972	0.086661036	0.003058964
652.12	0.08682	0.086661036	0.000158964
652.16	0.08493	0.086661037	-0.001731037
652.2	0.08671	0.086661037	4.89626E-05
652.24	0.08488	0.086661038	-0.001781038
652.28	0.09048	0.086661038	0.003818962
652.32	0.08503	0.086661039	-0.001631039
652.36	0.08447	0.086661039	-0.002191039
652.4	0.08575	0.08666104	-0.00091104
652.44	0.08687	0.08666104	0.00020896
652.48	0.08962	0.086661041	0.002958959
652.52	0.0887	0.086661041	0.002038959
652.56	0.0885	0.086661042	0.001838958
652.6	0.08788	0.086661042	0.001218958
652.64	0.08773	0.086661043	0.001068957
652.68	0.08666	0.086661043	-1.04301E-06
652.72	0.08671	0.086661043	4.89565E-05
652.76	0.08956	0.086661044	0.002898956
652.8	0.08478	0.086661044	-0.001881044
652.84	0.08951	0.086661045	0.002848955
652.88	0.08651	0.086661045	-0.000151045
652.92	0.08386	0.086661046	-0.002801046
652.96	0.08376	0.086661046	-0.002901046
653	0.09063	0.086661047	0.003968953
653.04	0.08671	0.086661047	4.89528E-05
653.08	0.08865	0.086661048	0.001988952
653.12	0.08773	0.086661048	0.001068952
653.16	0.0831	0.086661049	-0.003561049
653.2	0.08844	0.086661049	0.001778951
653.24	0.08875	0.08666105	0.00208895
653.28	0.08962	0.08666105	0.00295895
653.32	0.0858	0.086661051	-0.000861051
653.36	0.08463	0.086661051	-0.002031051
653.4	0.07994	0.086661051	-0.006721051
653.44	0.08493	0.086661052	-0.001731052
653.48	0.08386	0.086661052	-0.002801052
653.52	0.08738	0.086661053	0.000718947
653.56	0.08788	0.086661053	0.001218947
653.6	0.08951	0.086661054	0.002848946
653.64	0.0941	0.086661054	0.007438946
653.68	0.09236	0.086661055	0.005698945
653.72	0.0857	0.086661055	-0.000961055
653.76	0.08483	0.086661056	-0.001831056
653.8	0.083	0.086661056	-0.003661056
653.84	0.08315	0.086661057	-0.003511057
653.88	0.08671	0.086661057	4.89429E-05
653.92	0.08834	0.086661058	0.001678942
653.96	0.09135	0.086661058	0.004688942
654	0.08692	0.086661058	0.000258942
654.04	0.08086	0.086661059	-0.005801059
654.08	0.08676	0.086661059	9.89406E-05
654.12	0.08692	0.08666106	0.00025894
654.16	0.08401	0.08666106	-0.00265106
654.2	0.08595	0.086661061	-0.000711061
654.24	0.08763	0.086661061	0.000968939
654.28	0.08804	0.086661062	0.001378938
654.32	0.08101	0.086661062	-0.005651062
654.36	0.0858	0.086661063	-0.000861063
654.4	0.08473	0.086661063	-0.001931063
654.44	0.08483	0.086661064	-0.001831064
654.48	0.08656	0.086661064	-0.000101064
654.52	0.0832	0.086661065	-0.003461065
654.56	0.08778	0.086661065	0.001118935
654.6	0.08962	0.086661065	0.002958935
654.64	0.08463	0.086661066	-0.002031066
654.68	0.08946	0.086661066	0.002798934
654.72	0.08941	0.086661067	0.002748933
654.76	0.09038	0.086661067	0.003718933
654.8	0.08763	0.086661068	0.000968932
654.84	0.07974	0.086661068	-0.006921068
654.88	0.08682	0.086661069	0.000158931
654.92	0.09018	0.086661069	0.003518931
654.96	0.08183	0.08666107	-0.00483107
655	0.08213	0.08666107	-0.00453107
655.04	0.08183	0.086661071	-0.004831071
655.08	0.08177	0.086661071	-0.004891071
655.12	0.08676	0.086661072	9.89284E-05
655.16	0.08768	0.086661072	0.001018928
655.2	0.09135	0.086661073	0.004688927
655.24	0.08595	0.086661073	-0.000711073
655.28	0.086	0.086661073	-0.000661073
655.32	0.08595	0.086661074	-0.000711074
655.36	0.08106	0.086661074	-0.005601074
655.4	0.0859	0.086661075	-0.000761075
655.44	0.08656	0.086661075	-0.000101075
655.48	0.08839	0.086661076	0.001728924
655.52	0.0858	0.086661076	-0.000861076
655.56	0.0857	0.086661077	-0.000961077
655.6	0.08575	0.086661077	-0.000911077
655.64	0.08396	0.086661078	-0.002701078
655.68	0.08992	0.086661078	0.003258922
655.72	0.08463	0.086661079	-0.002031079
655.76	0.08794	0.086661079	0.001278921
655.8	0.08417	0.08666108	-0.00249108
655.84	0.08514	0.08666108	-0.00152108
655.88	0.08855	0.08666108	0.00188892
655.92	0.0886	0.086661081	0.001938919
655.96	0.08004	0.086661081	-0.006621081
656	0.07999	0.086661082	-0.006671082
656.04	0.08855	0.086661082	0.001888918
656.08	0.08666	0.086661083	-1.08283E-06
656.12	0.08768	0.086661083	0.001018917
656.16	0.08564	0.086661084	-0.001021084
656.2	0.0858	0.086661084	-0.000861084
656.24	0.0859	0.086661085	-0.000761085
656.28	0.08687	0.086661085	0.000208915
656.32	0.08972	0.086661086	0.003058914
656.36	0.08463	0.086661086	-0.002031086
656.4	0.08967	0.086661087	0.003008913
656.44	0.08483	0.086661087	-0.001831087
656.48	0.08478	0.086661088	-0.001881088
656.52	0.08473	0.086661088	-0.001931088
656.56	0.08844	0.086661088	0.001778912
656.6	0.08554	0.086661089	-0.001121089
656.64	0.08941	0.086661089	0.002748911
656.68	0.0916	0.08666109	0.00493891
656.72	0.08193	0.08666109	-0.00473109
656.76	0.0886	0.086661091	0.001938909
656.8	0.08844	0.086661091	0.001778909
656.84	0.0858	0.086661092	-0.000861092
656.88	0.08401	0.086661092	-0.002651092
656.92	0.08967	0.086661093	0.003008907
656.96	0.0886	0.086661093	0.001938907
657	0.0861	0.086661094	-0.000561094
657.04	0.08463	0.086661094	-0.002031094
657.08	0.08468	0.086661095	-0.001981095
657.12	0.09063	0.086661095	0.003968905
657.16	0.08936	0.086661095	0.002698905
657.2	0.08203	0.086661096	-0.004631096
657.24	0.08407	0.086661096	-0.002591096
657.28	0.08692	0.086661097	0.000258903
657.32	0.08401	0.086661097	-0.002651097
657.36	0.08422	0.086661098	-0.002441098
657.4	0.08473	0.086661098	-0.001931098
657.44	0.08605	0.086661099	-0.000611099
657.48	0.08967	0.086661099	0.003008901
657.52	0.08788	0.0866611	0.0012189
657.56	0.08941	0.0866611	0.0027489
657.6	0.08763	0.086661101	0.000968899
657.64	0.08956	0.086661101	0.002898899
657.68	0.08936	0.086661102	0.002698898
657.72	0.08208	0.086661102	-0.004581102
657.76	0.08564	0.086661103	-0.001021103
657.8	0.08738	0.086661103	0.000718897
657.84	0.08855	0.086661103	0.001888897
657.88	0.08585	0.086661104	-0.000811104
657.92	0.083	0.086661104	-0.003661104
657.96	0.08295	0.086661105	-0.003711105
658	0.09043	0.086661105	0.003768895
658.04	0.08401	0.086661106	-0.002651106
658.08	0.08274	0.086661106	-0.003921106
658.12	0.08743	0.086661107	0.000768893
658.16	0.08371	0.086661107	-0.002951107
658.2	0.08473	0.086661108	-0.001931108
658.24	0.08666	0.086661108	-1.10812E-06
658.28	0.08676	0.086661109	9.88914E-05
658.32	0.08753	0.086661109	0.000868891
658.36	0.08967	0.08666111	0.00300889
658.4	0.08951	0.08666111	0.00284889
658.44	0.09038	0.08666111	0.00371889
658.48	0.08682	0.086661111	0.000158889
658.52	0.08768	0.086661111	0.001018889
658.56	0.08778	0.086661112	0.001118888
658.6	0.08875	0.086661112	0.002088888
658.64	0.09048	0.086661113	0.003818887
658.68	0.08778	0.086661113	0.001118887
658.72	0.09247	0.086661114	0.005808886
658.76	0.09425	0.086661114	0.007588886
658.8	0.08936	0.086661115	0.002698885
658.84	0.08951	0.086661115	0.002848885
658.88	0.08972	0.086661116	0.003058884
658.92	0.09822	0.086661116	0.011558884
658.96	0.08839	0.086661117	0.001728883
659	0.0916	0.086661117	0.004938883
659.04	0.09817	0.086661117	0.011508883
659.08	0.09517	0.086661118	0.008508882
659.12	0.09995	0.086661118	0.013288882
659.16	0.0997	0.086661119	0.013038881
659.2	0.10066	0.086661119	0.013998881
659.24	0.09618	0.08666112	0.00951888
659.28	0.09995	0.08666112	0.01328888
659.32	0.10652	0.086661121	0.019858879
659.36	0.0998	0.086661121	0.013138879
659.4	0.10942	0.086661122	0.022758878
659.44	0.10922	0.086661122	0.022558878
659.48	0.10952	0.086661123	0.022858877
659.52	0.11115	0.086661123	0.024488877
659.56	0.10738	0.086661124	0.020718876
659.6	0.11696	0.086661124	0.030298876
659.64	0.11411	0.086661125	0.027448875
659.68	0.11696	0.086661125	0.030298875
659.72	0.11696	0.086661125	0.030298875
659.76	0.11293	0.086661126	0.026268874
659.8	0.11105	0.086661126	0.024388874
659.84	0.11029	0.086661127	0.023628873
659.88	0.11298	0.086661127	0.026318873
659.92	0.12083	0.086661128	0.034168872
659.96	0.11405	0.086661128	0.027388872
660	0.114	0.086661129	0.027338871
660.04	0.11421	0.086661129	0.027548871
660.08	0.11227	0.08666113	0.02560887
660.12	0.11599	0.08666113	0.02932887
660.16	0.10586	0.086661131	0.019198869
660.2	0.1083	0.086661131	0.021638869
660.24	0.10718	0.086661132	0.020518868
660.28	0.10173	0.086661132	0.015068868
660.32	0.10209	0.086661132	0.015428868
660.36	0.11024	0.086661133	0.023578867
660.4	0.10652	0.086661133	0.019858867
660.44	0.10194	0.086661134	0.015278866
660.48	0.10005	0.086661134	0.013388866
660.52	0.0942	0.086661135	0.007538865
660.56	0.09715	0.086661135	0.010488865
660.6	0.09629	0.086661136	0.009628864
660.64	0.09608	0.086661136	0.009418864
660.68	0.08951	0.086661137	0.002848863
660.72	0.09155	0.086661137	0.004888863
660.76	0.09415	0.086661138	0.007488862
660.8	0.09211	0.086661138	0.005448862
660.84	0.09018	0.086661139	0.003518861
660.88	0.08656	0.086661139	-0.000101139
660.92	0.08687	0.08666114	0.00020886
660.96	0.08498	0.08666114	-0.00168114
661	0.0887	0.08666114	0.00203886
661.04	0.08412	0.086661141	-0.002541141
661.08	0.09124	0.086661141	0.004578859
661.12	0.09242	0.086661142	0.005758858
661.16	0.09323	0.086661142	0.006568858
661.2	0.09333	0.086661143	0.006668857
661.24	0.08391	0.086661143	-0.002751143
661.28	0.09236	0.086661144	0.005698856
661.32	0.08768	0.086661144	0.001018856
661.36	0.09328	0.086661145	0.006618855
661.4	0.0915	0.086661145	0.004838855
661.44	0.08682	0.086661146	0.000158854
661.48	0.08977	0.086661146	0.003108854
661.52	0.08972	0.086661147	0.003058853
661.56	0.09338	0.086661147	0.006718853
661.6	0.0942	0.086661147	0.007538853
661.64	0.0942	0.086661148	0.007538852
661.68	0.09058	0.086661148	0.003918852
661.72	0.09318	0.086661149	0.006518851
661.76	0.09104	0.086661149	0.004378851
661.8	0.09155	0.08666115	0.00488885
661.84	0.09425	0.08666115	0.00758885
661.88	0.09058	0.086661151	0.003918849
661.92	0.09211	0.086661151	0.005448849
661.96	0.09053	0.086661152	0.003868848
662	0.08396	0.086661152	-0.002701152
662.04	0.09175	0.086661153	0.005088847
662.08	0.0914	0.086661153	0.004738847
662.12	0.08773	0.086661154	0.001068846
662.16	0.09898	0.086661154	0.012318846
662.2	0.09043	0.086661154	0.003768846
662.24	0.09532	0.086661155	0.008658845
662.28	0.09608	0.086661155	0.009418845
662.32	0.09685	0.086661156	0.010188844
662.36	0.09522	0.086661156	0.008558844
662.4	0.09522	0.086661157	0.008558843
662.44	0.10448	0.086661157	0.017818843
662.48	0.09883	0.086661158	0.012168842
662.52	0.09511	0.086661158	0.008448842
662.56	0.09634	0.086661159	0.009678841
662.6	0.09741	0.086661159	0.010748841
662.64	0.0943	0.08666116	0.00763884
662.68	0.09445	0.08666116	0.00778884
662.72	0.10112	0.086661161	0.014458839
662.76	0.10199	0.086661161	0.015328839
662.8	0.10906	0.086661162	0.022398838
662.84	0.10377	0.086661162	0.017108838
662.88	0.10458	0.086661162	0.017918838
662.92	0.111	0.086661163	0.024338837
662.96	0.10458	0.086661163	0.017918837
663	0.10464	0.086661164	0.017978836
663.04	0.1056	0.086661164	0.018938836
663.08	0.10937	0.086661165	0.022708835
663.12	0.10922	0.086661165	0.022558835
663.16	0.11232	0.086661166	0.025658834
663.2	0.10866	0.086661166	0.021998834
663.24	0.11024	0.086661167	0.023578833
663.28	0.11008	0.086661167	0.023418833
663.32	0.11879	0.086661168	0.032128832
663.36	0.11874	0.086661168	0.032078832
663.4	0.11034	0.086661169	0.023678831
663.44	0.11003	0.086661169	0.023368831
663.48	0.11874	0.086661169	0.032078831
663.52	0.11482	0.08666117	0.02815883
663.56	0.11512	0.08666117	0.02845883
663.6	0.11711	0.086661171	0.030448829
663.64	0.12179	0.086661171	0.035128829
663.68	0.12648	0.086661172	0.039818828
663.72	0.11472	0.086661172	0.028058828
663.76	0.11691	0.086661173	0.030248827
663.8	0.11324	0.086661173	0.026578827
663.84	0.11869	0.086661174	0.032028826
663.88	0.11864	0.086661174	0.031978826
663.92	0.114	0.086661175	0.027338825
663.96	0.11105	0.086661175	0.024388825
664	0.11018	0.086661176	0.023518824
664.04	0.1139	0.086661176	0.027238824
664.08	0.11787	0.086661177	0.031208823
664.12	0.1084	0.086661177	0.021738823
664.16	0.10845	0.086661177	0.021788823
664.2	0.10555	0.086661178	0.018888822
664.24	0.10728	0.086661178	0.020618822
664.28	0.1084	0.086661179	0.021738821
664.32	0.10183	0.086661179	0.015168821
664.36	0.10199	0.08666118	0.01532882
664.4	0.09914	0.08666118	0.01247882
664.44	0.09898	0.086661181	0.012318819
664.48	0.10183	0.086661181	0.015168819
664.52	0.10443	0.086661182	0.017768818
664.56	0.10173	0.086661182	0.015068818
664.6	0.10015	0.086661183	0.013488817
664.64	0.10021	0.086661183	0.013548817
664.68	0.09242	0.086661184	0.005758816
664.72	0.10026	0.086661184	0.013598816
664.76	0.09995	0.086661184	0.013288816
664.8	0.09338	0.086661185	0.006718815
664.84	0.10382	0.086661185	0.017158815
664.88	0.09802	0.086661186	0.011358814
664.92	0.09909	0.086661186	0.012428814
664.96	0.09797	0.086661187	0.011308813
665	0.09629	0.086661187	0.009628813
665.04	0.09613	0.086661188	0.009468812
665.08	0.09231	0.086661188	0.005648812
665.12	0.08926	0.086661189	0.002598811
665.16	0.09542	0.086661189	0.008758811
665.2	0.09511	0.08666119	0.00844881
665.24	0.09165	0.08666119	0.00498881
665.28	0.08951	0.086661191	0.002848809
665.32	0.08783	0.086661191	0.001168809
665.36	0.08768	0.086661191	0.001018809
665.4	0.08401	0.086661192	-0.002651192
665.44	0.08819	0.086661192	0.001528808
665.48	0.08575	0.086661193	-0.000911193
665.52	0.0914	0.086661193	0.004738807
665.56	0.09231	0.086661194	0.005648806
665.6	0.09135	0.086661194	0.004688806
665.64	0.0917	0.086661195	0.005038805
665.68	0.09216	0.086661195	0.005498805
665.72	0.08967	0.086661196	0.003008804
665.76	0.09527	0.086661196	0.008608804
665.8	0.09221	0.086661197	0.005548803
665.84	0.08972	0.086661197	0.003058803
665.88	0.08921	0.086661198	0.002548802
665.92	0.08962	0.086661198	0.002958802
665.96	0.0857	0.086661199	-0.000961199
666	0.08478	0.086661199	-0.001881199
666.04	0.08865	0.086661199	0.001988801
666.08	0.09023	0.0866612	0.0035688
666.12	0.08498	0.0866612	-0.0016812
666.16	0.0942	0.086661201	0.007538799
666.2	0.09303	0.086661201	0.006368799
666.24	0.09364	0.086661202	0.006978798
666.28	0.0859	0.086661202	-0.000761202
666.32	0.08554	0.086661203	-0.001121203
666.36	0.08753	0.086661203	0.000868797
666.4	0.09216	0.086661204	0.005498796
666.44	0.08911	0.086661204	0.002448796
666.48	0.0858	0.086661205	-0.000861205
666.52	0.0857	0.086661205	-0.000961205
666.56	0.08676	0.086661206	9.87944E-05
666.6	0.08839	0.086661206	0.001728794
666.64	0.08956	0.086661206	0.002898794
666.68	0.09155	0.086661207	0.004888793
666.72	0.08982	0.086661207	0.003158793
666.76	0.08778	0.086661208	0.001118792
666.8	0.08773	0.086661208	0.001068792
666.84	0.08783	0.086661209	0.001168791
666.88	0.08875	0.086661209	0.002088791
666.92	0.0886	0.08666121	0.00193879
666.96	0.08656	0.08666121	-0.00010121
667	0.0941	0.086661211	0.007438789
667.04	0.08839	0.086661211	0.001728789
667.08	0.09145	0.086661212	0.004788788
667.12	0.09119	0.086661212	0.004528788
667.16	0.0859	0.086661213	-0.000761213
667.2	0.09343	0.086661213	0.006768787
667.24	0.08819	0.086661214	0.001528786
667.28	0.08977	0.086661214	0.003108786
667.32	0.08595	0.086661214	-0.000711214
667.36	0.08824	0.086661215	0.001578785
667.4	0.08844	0.086661215	0.001778785
667.44	0.08855	0.086661216	0.001888784
667.48	0.08671	0.086661216	4.87837E-05
667.52	0.08946	0.086661217	0.002798783
667.56	0.08844	0.086661217	0.001778783
667.6	0.0857	0.086661218	-0.000961218
667.64	0.08763	0.086661218	0.000968782
667.68	0.08656	0.086661219	-0.000101219
667.72	0.08682	0.086661219	0.000158781
667.76	0.08671	0.08666122	4.87804E-05
667.8	0.08676	0.08666122	9.87799E-05
667.84	0.0888	0.086661221	0.002138779
667.88	0.0885	0.086661221	0.001838779
667.92	0.08783	0.086661221	0.001168779
667.96	0.08931	0.086661222	0.002648778
668	0.08962	0.086661222	0.002958778
668.04	0.09038	0.086661223	0.003718777
668.08	0.08753	0.086661223	0.000868777
668.12	0.08921	0.086661224	0.002548776
668.16	0.08447	0.086661224	-0.002191224
668.2	0.0914	0.086661225	0.004738775
668.24	0.08473	0.086661225	-0.001931225
668.28	0.08478	0.086661226	-0.001881226
668.32	0.08666	0.086661226	-1.22616E-06
668.36	0.09348	0.086661227	0.006818773
668.4	0.09262	0.086661227	0.005958773
668.44	0.08819	0.086661228	0.001528772
668.48	0.08468	0.086661228	-0.001981228
668.52	0.08758	0.086661229	0.000918771
668.56	0.08478	0.086661229	-0.001881229
668.6	0.08463	0.086661229	-0.002031229
668.64	0.08936	0.08666123	0.00269877
668.68	0.08844	0.08666123	0.00177877
668.72	0.09135	0.086661231	0.004688769
668.76	0.0858	0.086661231	-0.000861231
668.8	0.08956	0.086661232	0.002898768
668.84	0.08585	0.086661232	-0.000811232
668.88	0.0859	0.086661233	-0.000761233
668.92	0.09333	0.086661233	0.006668767
668.96	0.08839	0.086661234	0.001728766
669	0.0857	0.086661234	-0.000961234
669.04	0.0858	0.086661235	-0.000861235
669.08	0.08768	0.086661235	0.001018765
669.12	0.08763	0.086661236	0.000968764
669.16	0.08748	0.086661236	0.000818764
669.2	0.0859	0.086661236	-0.000761236
669.24	0.08783	0.086661237	0.001168763
669.28	0.08493	0.086661237	-0.001731237
669.32	0.08778	0.086661238	0.001118762
669.36	0.0885	0.086661238	0.001838762
669.4	0.08865	0.086661239	0.001988761
669.44	0.0859	0.086661239	-0.000761239
669.48	0.0859	0.08666124	-0.00076124
669.52	0.08401	0.08666124	-0.00265124
669.56	0.08962	0.086661241	0.002958759
669.6	0.08875	0.086661241	0.002088759
669.64	0.08559	0.086661242	-0.001071242
669.68	0.08488	0.086661242	-0.001781242
669.72	0.09252	0.086661243	0.005858757
669.76	0.09221	0.086661243	0.005548757
669.8	0.08554	0.086661243	-0.001121243
669.84	0.08692	0.086661244	0.000258756
669.88	0.09038	0.086661244	0.003718756
669.92	0.08778	0.086661245	0.001118755
669.96	0.09058	0.086661245	0.003918755
670	0.08962	0.086661246	0.002958754
670.04	0.09038	0.086661246	0.003718754
670.08	0.09023	0.086661247	0.003568753
670.12	0.09216	0.086661247	0.005498753
670.16	0.08844	0.086661248	0.001778752
670.2	0.0914	0.086661248	0.004738752
670.24	0.09043	0.086661249	0.003768751
670.28	0.09211	0.086661249	0.005448751
670.32	0.09685	0.08666125	0.01018875
670.36	0.09695	0.08666125	0.01028875
670.4	0.09435	0.086661251	0.007688749
670.44	0.09527	0.086661251	0.008608749
670.48	0.09236	0.086661251	0.005698749
670.52	0.08977	0.086661252	0.003108748
670.56	0.09613	0.086661252	0.009468748
670.6	0.09598	0.086661253	0.009318747
670.64	0.09639	0.086661253	0.009728747
670.68	0.09348	0.086661254	0.006818746
670.72	0.09695	0.086661254	0.010288746
670.76	0.09517	0.086661255	0.008508745
670.8	0.09914	0.086661255	0.012478745
670.84	0.09527	0.086661256	0.008608744
670.88	0.09435	0.086661256	0.007688744
670.92	0.09517	0.086661257	0.008508743
670.96	0.09547	0.086661257	0.008808743
671	0.09338	0.086661258	0.006718742
671.04	0.0943	0.086661258	0.007638742
671.08	0.09812	0.086661258	0.011458742
671.12	0.09786	0.086661259	0.011198741
671.16	0.09348	0.086661259	0.006818741
671.2	0.09588	0.08666126	0.00921874
671.24	0.09588	0.08666126	0.00921874
671.28	0.09959	0.086661261	0.012928739
671.32	0.09893	0.086661261	0.012268739
671.36	0.10189	0.086661262	0.015228738
671.4	0.09822	0.086661262	0.011558738
671.44	0.1001	0.086661263	0.013438737
671.48	0.10077	0.086661263	0.014108737
671.52	0.10092	0.086661264	0.014258736
671.56	0.09155	0.086661264	0.004888736
671.6	0.09985	0.086661265	0.013188735
671.64	0.10275	0.086661265	0.016088735
671.68	0.09613	0.086661266	0.009468734
671.72	0.09608	0.086661266	0.009418734
671.76	0.09506	0.086661266	0.008398734
671.8	0.0914	0.086661267	0.004738733
671.84	0.09135	0.086661267	0.004688733
671.88	0.09333	0.086661268	0.006668732
671.92	0.09313	0.086661268	0.006468732
671.96	0.09145	0.086661269	0.004788731
672	0.09715	0.086661269	0.010488731
672.04	0.09629	0.08666127	0.00962873
672.08	0.0945	0.08666127	0.00783873
672.12	0.09405	0.086661271	0.007388729
672.16	0.0914	0.086661271	0.004738729
672.2	0.09522	0.086661272	0.008558728
672.24	0.08951	0.086661272	0.002848728
672.28	0.09333	0.086661273	0.006668727
672.32	0.09211	0.086661273	0.005448727
672.36	0.08651	0.086661273	-0.000151273
672.4	0.08967	0.086661274	0.003008726
672.44	0.08962	0.086661274	0.002958726
672.48	0.09236	0.086661275	0.005698725
672.52	0.08412	0.086661275	-0.002541275
672.56	0.09496	0.086661276	0.008298724
672.6	0.09165	0.086661276	0.004988724
672.64	0.08676	0.086661277	9.87233E-05
672.68	0.09226	0.086661277	0.005598723
672.72	0.09231	0.086661278	0.005648722
672.76	0.0887	0.086661278	0.002038722
672.8	0.08682	0.086661279	0.000158721
672.84	0.08661	0.086661279	-5.12791E-05
672.88	0.08972	0.08666128	0.00305872
672.92	0.08697	0.08666128	0.00030872
672.96	0.08855	0.08666128	0.00188872
673	0.08865	0.086661281	0.001988719
673.04	0.08977	0.086661281	0.003108719
673.08	0.08931	0.086661282	0.002648718
673.12	0.0859	0.086661282	-0.000761282
673.16	0.08778	0.086661283	0.001118717
673.2	0.08183	0.086661283	-0.004831283
673.24	0.09048	0.086661284	0.003818716
673.28	0.0913	0.086661284	0.004638716
673.32	0.09124	0.086661285	0.004578715
673.36	0.09216	0.086661285	0.005498715
673.4	0.08442	0.086661286	-0.002241286
673.44	0.08855	0.086661286	0.001888714
673.48	0.08687	0.086661287	0.000208713
673.52	0.0885	0.086661287	0.001838713
673.56	0.0887	0.086661288	0.002038712
673.6	0.08839	0.086661288	0.001728712
673.64	0.09165	0.086661288	0.004988712
673.68	0.09058	0.086661289	0.003918711
673.72	0.08544	0.086661289	-0.001221289
673.76	0.08661	0.08666129	-5.12899E-05
673.8	0.08768	0.08666129	0.00101871
673.84	0.0885	0.086661291	0.001838709
673.88	0.08829	0.086661291	0.001628709
673.92	0.08962	0.086661292	0.002958708
673.96	0.0916	0.086661292	0.004938708
674	0.08666	0.086661293	-1.29267E-06
674.04	0.0914	0.086661293	0.004738707
674.08	0.08396	0.086661294	-0.002701294
674.12	0.0915	0.086661294	0.004838706
674.16	0.086	0.086661295	-0.000661295
674.2	0.0859	0.086661295	-0.000761295
674.24	0.08682	0.086661295	0.000158705
674.28	0.09033	0.086661296	0.003668704
674.32	0.08956	0.086661296	0.002898704
674.36	0.08676	0.086661297	9.87031E-05
674.4	0.08488	0.086661297	-0.001781297
674.44	0.08844	0.086661298	0.001778702
674.48	0.08834	0.086661298	0.001678702
674.52	0.08758	0.086661299	0.000918701
674.56	0.08651	0.086661299	-0.000151299
674.6	0.08768	0.0866613	0.0010187
674.64	0.09053	0.0866613	0.0038687
674.68	0.08325	0.086661301	-0.003411301
674.72	0.09058	0.086661301	0.003918699
674.76	0.09074	0.086661302	0.004078698
674.8	0.09043	0.086661302	0.003768698
674.84	0.08946	0.086661303	0.002798697
674.88	0.08692	0.086661303	0.000258697
674.92	0.09226	0.086661303	0.005598697
674.96	0.08463	0.086661304	-0.002031304
675	0.08682	0.086661304	0.000158696
675.04	0.09053	0.086661305	0.003868695
675.08	0.09023	0.086661305	0.003568695
675.12	0.08483	0.086661306	-0.001831306
675.16	0.08748	0.086661306	0.000818694
675.2	0.08473	0.086661307	-0.001931307
675.24	0.0859	0.086661307	-0.000761307
675.28	0.08855	0.086661308	0.001888692
675.32	0.08661	0.086661308	-5.13081E-05
675.36	0.08671	0.086661309	4.86914E-05
675.4	0.08193	0.086661309	-0.004731309
675.44	0.08376	0.08666131	-0.00290131
675.48	0.08661	0.08666131	-5.131E-05
675.52	0.08177	0.08666131	-0.00489131
675.56	0.08855	0.086661311	0.001888689
675.6	0.08422	0.086661311	-0.002441311
675.64	0.08483	0.086661312	-0.001831312
675.68	0.08483	0.086661312	-0.001831312
675.72	0.08488	0.086661313	-0.001781313
675.76	0.08468	0.086661313	-0.001981313
675.8	0.08284	0.086661314	-0.003821314
675.84	0.0859	0.086661314	-0.000761314
675.88	0.0941	0.086661315	0.007438685
675.92	0.09333	0.086661315	0.006668685
675.96	0.09318	0.086661316	0.006518684
676	0.08279	0.086661316	-0.003871316
676.04	0.08676	0.086661317	9.86834E-05
676.08	0.08956	0.086661317	0.002898683
676.12	0.08671	0.086661318	4.86825E-05
676.16	0.08386	0.086661318	-0.002801318
676.2	0.0857	0.086661318	-0.000961318
676.24	0.0858	0.086661319	-0.000861319
676.28	0.0857	0.086661319	-0.000961319
676.32	0.08946	0.08666132	0.00279868
676.36	0.08839	0.08666132	0.00172868
676.4	0.08676	0.086661321	9.86792E-05
676.44	0.08284	0.086661321	-0.003821321
676.48	0.09517	0.086661322	0.008508678
676.52	0.08768	0.086661322	0.001018678
676.56	0.08758	0.086661323	0.000918677
676.6	0.08844	0.086661323	0.001778677
676.64	0.09165	0.086661324	0.004988676
676.68	0.08865	0.086661324	0.001988676
676.72	0.08671	0.086661325	4.86755E-05
676.76	0.08646	0.086661325	-0.000201325
676.8	0.0885	0.086661325	0.001838675
676.84	0.08844	0.086661326	0.001778674
676.88	0.09043	0.086661326	0.003768674
676.92	0.08407	0.086661327	-0.002591327
676.96	0.09323	0.086661327	0.006568673
677	0.09328	0.086661328	0.006618672
677.04	0.08834	0.086661328	0.001678672
677.08	0.086	0.086661329	-0.000661329
677.12	0.08855	0.086661329	0.001888671
677.16	0.0886	0.08666133	0.00193867
677.2	0.08676	0.08666133	9.86699E-05
677.24	0.08865	0.086661331	0.001988669
677.28	0.08473	0.086661331	-0.001931331
677.32	0.0859	0.086661332	-0.000761332
677.36	0.08478	0.086661332	-0.001881332
677.4	0.08946	0.086661332	0.002798668
677.44	0.08941	0.086661333	0.002748667
677.48	0.0887	0.086661333	0.002038667
677.52	0.08575	0.086661334	-0.000911334
677.56	0.08564	0.086661334	-0.001021334
677.6	0.08641	0.086661335	-0.000251335
677.64	0.09338	0.086661335	0.006718665
677.68	0.0857	0.086661336	-0.000961336
677.72	0.0859	0.086661336	-0.000761336
677.76	0.08946	0.086661337	0.002798663
677.8	0.09231	0.086661337	0.005648663
677.84	0.08289	0.086661338	-0.003771338
677.88	0.08967	0.086661338	0.003008662
677.92	0.08661	0.086661339	-5.13386E-05
677.96	0.08671	0.086661339	4.8661E-05
678	0.08819	0.08666134	0.00152866
678.04	0.08844	0.08666134	0.00177866
678.08	0.09068	0.08666134	0.00401866
678.12	0.08839	0.086661341	0.001728659
678.16	0.08493	0.086661341	-0.001731341
678.2	0.08503	0.086661342	-0.001631342
678.24	0.09048	0.086661342	0.003818658
678.28	0.08702	0.086661343	0.000358657
678.32	0.08692	0.086661343	0.000258657
678.36	0.09023	0.086661344	0.003568656
678.4	0.08844	0.086661344	0.001778656
678.44	0.08468	0.086661345	-0.001981345
678.48	0.08463	0.086661345	-0.002031345
678.52	0.08763	0.086661346	0.000968654
678.56	0.08483	0.086661346	-0.001831346
678.6	0.08468	0.086661347	-0.001981347
678.64	0.08366	0.086661347	-0.003001347
678.68	0.08687	0.086661347	0.000208653
678.72	0.08783	0.086661348	0.001168652
678.76	0.09231	0.086661348	0.005648652
678.8	0.0917	0.086661349	0.005038651
678.84	0.08564	0.086661349	-0.001021349
678.88	0.08473	0.08666135	-0.00193135
678.92	0.08493	0.08666135	-0.00173135
678.96	0.08671	0.086661351	4.86492E-05
679	0.0858	0.086661351	-0.000861351
679.04	0.08463	0.086661352	-0.002031352
679.08	0.08824	0.086661352	0.001578648
679.12	0.0859	0.086661353	-0.000761353
679.16	0.08666	0.086661353	-1.3531E-06
679.2	0.08682	0.086661354	0.000158646
679.24	0.08844	0.086661354	0.001778646
679.28	0.08208	0.086661355	-0.004581355
679.32	0.08091	0.086661355	-0.005751355
679.36	0.09231	0.086661355	0.005648645
679.4	0.08788	0.086661356	0.001218644
679.44	0.08498	0.086661356	-0.001681356
679.48	0.09221	0.086661357	0.005548643
679.52	0.09231	0.086661357	0.005648643
679.56	0.08671	0.086661358	4.86422E-05
679.6	0.08962	0.086661358	0.002958642
679.64	0.08585	0.086661359	-0.000811359
679.68	0.08177	0.086661359	-0.004891359
679.72	0.0916	0.08666136	0.00493864
679.76	0.08829	0.08666136	0.00162864
679.8	0.0887	0.086661361	0.002038639
679.84	0.08977	0.086661361	0.003108639
679.88	0.09343	0.086661362	0.006768638
679.92	0.08208	0.086661362	-0.004581362
679.96	0.09033	0.086661362	0.003668638
680	0.08468	0.086661363	-0.001981363
680.04	0.09023	0.086661363	0.003568637
680.08	0.09033	0.086661364	0.003668636
680.12	0.086	0.086661364	-0.000661364
680.16	0.08478	0.086661365	-0.001881365
680.2	0.09053	0.086661365	0.003868635
680.24	0.08386	0.086661366	-0.002801366
680.28	0.08855	0.086661366	0.001888634
680.32	0.0916	0.086661367	0.004938633
680.36	0.08289	0.086661367	-0.003771367
680.4	0.08289	0.086661368	-0.003771368
680.44	0.08956	0.086661368	0.002898632
680.48	0.08396	0.086661369	-0.002701369
680.52	0.09043	0.086661369	0.003768631
680.56	0.08401	0.086661369	-0.002651369
680.6	0.08666	0.08666137	-1.36996E-06
680.64	0.08585	0.08666137	-0.00081137
680.68	0.08549	0.086661371	-0.001171371
680.72	0.08595	0.086661371	-0.000711371
680.76	0.08962	0.086661372	0.002958628
680.8	0.09236	0.086661372	0.005698628
680.84	0.083	0.086661373	-0.003661373
680.88	0.09043	0.086661373	0.003768627
680.92	0.08575	0.086661374	-0.000911374
680.96	0.0857	0.086661374	-0.000961374
681	0.0885	0.086661375	0.001838625
681.04	0.08468	0.086661375	-0.001981375
681.08	0.08844	0.086661376	0.001778624
681.12	0.08768	0.086661376	0.001018624
681.16	0.08956	0.086661377	0.002898623
681.2	0.08885	0.086661377	0.002188623
681.24	0.08855	0.086661377	0.001888623
681.28	0.08875	0.086661378	0.002088622
681.32	0.08391	0.086661378	-0.002751378
681.36	0.08091	0.086661379	-0.005751379
681.4	0.08615	0.086661379	-0.000511379
681.44	0.09348	0.08666138	0.00681862
681.48	0.08483	0.08666138	-0.00183138
681.52	0.0915	0.086661381	0.004838619
681.56	0.0915	0.086661381	0.004838619
681.6	0.08483	0.086661382	-0.001831382
681.64	0.08646	0.086661382	-0.000201382
681.68	0.08972	0.086661383	0.003058617
681.72	0.08559	0.086661383	-0.001071383
681.76	0.08748	0.086661384	0.000818616
681.8	0.08962	0.086661384	0.002958616
681.84	0.08865	0.086661384	0.001988616
681.88	0.08783	0.086661385	0.001168615
681.92	0.08967	0.086661385	0.003008615
681.96	0.08671	0.086661386	4.86141E-05
682	0.08386	0.086661386	-0.002801386
682.04	0.08768	0.086661387	0.001018613
682.08	0.08468	0.086661387	-0.001981387
682.12	0.08977	0.086661388	0.003108612
682.16	0.08956	0.086661388	0.002898612
682.2	0.09236	0.086661389	0.005698611
682.24	0.08391	0.086661389	-0.002751389
682.28	0.08284	0.08666139	-0.00382139
682.32	0.086	0.08666139	-0.00066139
682.36	0.08458	0.086661391	-0.002081391
682.4	0.08773	0.086661391	0.001068609
682.44	0.08783	0.086661392	0.001168608
682.48	0.08605	0.086661392	-0.000611392
682.52	0.0885	0.086661392	0.001838608
682.56	0.08763	0.086661393	0.000968607
682.6	0.07984	0.086661393	-0.006821393
682.64	0.08758	0.086661394	0.000918606
682.68	0.08794	0.086661394	0.001278606
682.72	0.08855	0.086661395	0.001888605
682.76	0.08865	0.086661395	0.001988605
682.8	0.0914	0.086661396	0.004738604
682.84	0.08651	0.086661396	-0.000151396
682.88	0.08768	0.086661397	0.001018603
682.92	0.08463	0.086661397	-0.002031397
682.96	0.08218	0.086661398	-0.004481398
683	0.09155	0.086661398	0.004888602
683.04	0.09135	0.086661399	0.004688601
683.08	0.09415	0.086661399	0.007488601
683.12	0.0915	0.086661399	0.004838601
683.16	0.0857	0.0866614	-0.0009614
683.2	0.08274	0.0866614	-0.0039214
683.24	0.08575	0.086661401	-0.000911401
683.28	0.08758	0.086661401	0.000918599
683.32	0.08768	0.086661402	0.001018598
683.36	0.08305	0.086661402	-0.003611402
683.4	0.0888	0.086661403	0.002138597
683.44	0.08605	0.086661403	-0.000611403
683.48	0.08855	0.086661404	0.001888596
683.52	0.08758	0.086661404	0.000918596
683.56	0.086	0.086661405	-0.000661405
683.6	0.08585	0.086661405	-0.000811405
683.64	0.0858	0.086661406	-0.000861406
683.68	0.09231	0.086661406	0.005648594
683.72	0.08778	0.086661406	0.001118594
683.76	0.08788	0.086661407	0.001218593
683.8	0.08407	0.086661407	-0.002591407
683.84	0.08401	0.086661408	-0.002651408
683.88	0.08956	0.086661408	0.002898592
683.92	0.08962	0.086661409	0.002958591
683.96	0.08875	0.086661409	0.002088591
684	0.08783	0.08666141	0.00116859
684.04	0.08972	0.08666141	0.00305859
684.08	0.08203	0.086661411	-0.004631411
684.12	0.08661	0.086661411	-5.14112E-05
684.16	0.08585	0.086661412	-0.000811412
684.2	0.0858	0.086661412	-0.000861412
684.24	0.08956	0.086661413	0.002898587
684.28	0.08834	0.086661413	0.001678587
684.32	0.08585	0.086661414	-0.000811414
684.36	0.08824	0.086661414	0.001578586
684.4	0.09058	0.086661414	0.003918586
684.44	0.09221	0.086661415	0.005548585
684.48	0.08463	0.086661415	-0.002031415
684.52	0.08478	0.086661416	-0.001881416
684.56	0.0858	0.086661416	-0.000861416
684.6	0.09048	0.086661417	0.003818583
684.64	0.08666	0.086661417	-1.41727E-06
684.68	0.0915	0.086661418	0.004838582
684.72	0.08839	0.086661418	0.001728582
684.76	0.08666	0.086661419	-1.41868E-06
684.8	0.08687	0.086661419	0.000208581
684.84	0.09135	0.08666142	0.00468858
684.88	0.09028	0.08666142	0.00361858
684.92	0.08575	0.086661421	-0.000911421
684.96	0.08692	0.086661421	0.000258579
685	0.083	0.086661421	-0.003661421
685.04	0.08687	0.086661422	0.000208578
685.08	0.08773	0.086661422	0.001068578
685.12	0.08763	0.086661423	0.000968577
685.16	0.09135	0.086661423	0.004688577
685.2	0.08666	0.086661424	-1.42383E-06
685.24	0.08962	0.086661424	0.002958576
685.28	0.08508	0.086661425	-0.001581425
685.32	0.09053	0.086661425	0.003868575
685.36	0.08687	0.086661426	0.000208574
685.4	0.08646	0.086661426	-0.000201426
685.44	0.08763	0.086661427	0.000968573
685.48	0.08564	0.086661427	-0.001021427
685.52	0.08967	0.086661428	0.003008572
685.56	0.08839	0.086661428	0.001728572
685.6	0.08315	0.086661429	-0.003511429
685.64	0.09155	0.086661429	0.004888571
685.68	0.09145	0.086661429	0.004788571
685.72	0.08386	0.08666143	-0.00280143
685.76	0.08941	0.08666143	0.00274857
685.8	0.08855	0.086661431	0.001888569
685.84	0.08381	0.086661431	-0.002851431
685.88	0.08839	0.086661432	0.001728568
685.92	0.08483	0.086661432	-0.001831432
685.96	0.0917	0.086661433	0.005038567
686	0.0917	0.086661433	0.005038567
686.04	0.08682	0.086661434	0.000158566
686.08	0.09145	0.086661434	0.004788566
686.12	0.0857	0.086661435	-0.000961435
686.16	0.08473	0.086661435	-0.001931435
686.2	0.08671	0.086661436	4.85645E-05
686.24	0.08778	0.086661436	0.001118564
686.28	0.08758	0.086661436	0.000918564
686.32	0.08951	0.086661437	0.002848563
686.36	0.08763	0.086661437	0.000968563
686.4	0.08946	0.086661438	0.002798562
686.44	0.08381	0.086661438	-0.002851438
686.48	0.09522	0.086661439	0.008558561
686.52	0.08661	0.086661439	-5.14393E-05
686.56	0.08687	0.08666144	0.00020856
686.6	0.09323	0.08666144	0.00656856
686.64	0.08855	0.086661441	0.001888559
686.68	0.08773	0.086661441	0.001068559
686.72	0.09048	0.086661442	0.003818558
686.76	0.09028	0.086661442	0.003618558
686.8	0.08997	0.086661443	0.003308557
686.84	0.08758	0.086661443	0.000918557
686.88	0.08743	0.086661444	0.000768556
686.92	0.08829	0.086661444	0.001628556
686.96	0.08758	0.086661444	0.000918556
687	0.08768	0.086661445	0.001018555
687.04	0.08778	0.086661445	0.001118555
687.08	0.08666	0.086661446	-1.44584E-06
687.12	0.08844	0.086661446	0.001778554
687.16	0.08875	0.086661447	0.002088553
687.2	0.09048	0.086661447	0.003818553
687.24	0.08559	0.086661448	-0.001071448
687.28	0.09211	0.086661448	0.005448552
687.32	0.08931	0.086661449	0.002648551
687.36	0.08152	0.086661449	-0.005141449
687.4	0.08651	0.08666145	-0.00015145
687.44	0.08183	0.08666145	-0.00483145
687.48	0.08188	0.086661451	-0.004781451
687.52	0.08788	0.086661451	0.001218549
687.56	0.08972	0.086661451	0.003058549
687.6	0.0858	0.086661452	-0.000861452
687.64	0.08493	0.086661452	-0.001731452
687.68	0.08605	0.086661453	-0.000611453
687.72	0.08595	0.086661453	-0.000711453
687.76	0.08554	0.086661454	-0.001121454
687.8	0.09236	0.086661454	0.005698546
687.84	0.08778	0.086661455	0.001118545
687.88	0.09023	0.086661455	0.003568545
687.92	0.08641	0.086661456	-0.000251456
687.96	0.08768	0.086661456	0.001018544
688	0.09231	0.086661457	0.005648543
688.04	0.09231	0.086661457	0.005648543
688.08	0.08646	0.086661458	-0.000201458
688.12	0.0885	0.086661458	0.001838542
688.16	0.08763	0.086661458	0.000968542
688.2	0.08661	0.086661459	-5.1459E-05
688.24	0.08839	0.086661459	0.001728541
688.28	0.0885	0.08666146	0.00183854
688.32	0.08177	0.08666146	-0.00489146
688.36	0.08198	0.086661461	-0.004681461
688.4	0.0886	0.086661461	0.001938539
688.44	0.09435	0.086661462	0.007688538
688.48	0.08844	0.086661462	0.001778538
688.52	0.08396	0.086661463	-0.002701463
688.56	0.08661	0.086661463	-5.14632E-05
688.6	0.08315	0.086661464	-0.003511464
688.64	0.0832	0.086661464	-0.003461464
688.68	0.08967	0.086661465	0.003008535
688.72	0.09048	0.086661465	0.003818535
688.76	0.0886	0.086661466	0.001938534
688.8	0.08783	0.086661466	0.001168534
688.84	0.08972	0.086661466	0.003058534
688.88	0.08498	0.086661467	-0.001681467
688.92	0.08493	0.086661467	-0.001731467
688.96	0.08473	0.086661468	-0.001931468
689	0.08982	0.086661468	0.003158532
689.04	0.08289	0.086661469	-0.003771469
689.08	0.09058	0.086661469	0.003918531
689.12	0.08977	0.08666147	0.00310853
689.16	0.09333	0.08666147	0.00666853
689.2	0.08401	0.086661471	-0.002651471
689.24	0.08417	0.086661471	-0.002491471
689.28	0.08768	0.086661472	0.001018528
689.32	0.086	0.086661472	-0.000661472
689.36	0.09058	0.086661473	0.003918527
689.4	0.08951	0.086661473	0.002848527
689.44	0.08941	0.086661473	0.002748527
689.48	0.08483	0.086661474	-0.001831474
689.52	0.08488	0.086661474	-0.001781474
689.56	0.08844	0.086661475	0.001778525
689.6	0.09247	0.086661475	0.005808525
689.64	0.08585	0.086661476	-0.000811476
689.68	0.08702	0.086661476	0.000358524
689.72	0.08478	0.086661477	-0.001881477
689.76	0.09155	0.086661477	0.004888523
689.8	0.09175	0.086661478	0.005088522
689.84	0.0916	0.086661478	0.004938522
689.88	0.09033	0.086661479	0.003668521
689.92	0.08839	0.086661479	0.001728521
689.96	0.08773	0.08666148	0.00106852
690	0.09119	0.08666148	0.00452852
690.04	0.0857	0.086661481	-0.000961481
690.08	0.08962	0.086661481	0.002958519
690.12	0.08921	0.086661481	0.002548519
690.16	0.08274	0.086661482	-0.003921482
690.2	0.09242	0.086661482	0.005758518
690.24	0.08778	0.086661483	0.001118517
690.28	0.08946	0.086661483	0.002798517
690.32	0.08778	0.086661484	0.001118516
690.36	0.08213	0.086661484	-0.004531484
690.4	0.08198	0.086661485	-0.004681485
690.44	0.0885	0.086661485	0.001838515
690.48	0.08386	0.086661486	-0.002801486
690.52	0.09145	0.086661486	0.004788514
690.56	0.0915	0.086661487	0.004838513
690.6	0.09231	0.086661487	0.005648513
690.64	0.0887	0.086661488	0.002038512
690.68	0.08773	0.086661488	0.001068512
690.72	0.08763	0.086661488	0.000968512
690.76	0.0885	0.086661489	0.001838511
690.8	0.08875	0.086661489	0.002088511
690.84	0.08865	0.08666149	0.00198851
690.88	0.08875	0.08666149	0.00208851
690.92	0.08676	0.086661491	9.85092E-05
690.96	0.09068	0.086661491	0.004018509
691	0.09038	0.086661492	0.003718508
691.04	0.08661	0.086661492	-5.14922E-05
691.08	0.0857	0.086661493	-0.000961493
691.12	0.08844	0.086661493	0.001778507
691.16	0.0885	0.086661494	0.001838506
691.2	0.08488	0.086661494	-0.001781494
691.24	0.08768	0.086661495	0.001018505
691.28	0.08783	0.086661495	0.001168505
691.32	0.08748	0.086661495	0.000818505
691.36	0.08468	0.086661496	-0.001981496
691.4	0.08666	0.086661496	-1.49643E-06
691.44	0.08783	0.086661497	0.001168503
691.48	0.08671	0.086661497	4.85026E-05
691.52	0.0859	0.086661498	-0.000761498
691.56	0.08753	0.086661498	0.000868502
691.6	0.08773	0.086661499	0.001068501
691.64	0.08967	0.086661499	0.003008501
691.68	0.09155	0.0866615	0.0048885
691.72	0.08865	0.0866615	0.0019885
691.76	0.08758	0.086661501	0.000918499
691.8	0.09338	0.086661501	0.006718499
691.84	0.09155	0.086661502	0.004888498
691.88	0.09175	0.086661502	0.005088498
691.92	0.08692	0.086661503	0.000258497
691.96	0.09023	0.086661503	0.003568497
692	0.08758	0.086661503	0.000918497
692.04	0.08951	0.086661504	0.002848496
692.08	0.08834	0.086661504	0.001678496
692.12	0.08661	0.086661505	-5.15049E-05
692.16	0.09155	0.086661505	0.004888495
692.2	0.09135	0.086661506	0.004688494
692.24	0.08783	0.086661506	0.001168494
692.28	0.08946	0.086661507	0.002798493
692.32	0.08692	0.086661507	0.000258493
692.36	0.08773	0.086661508	0.001068492
692.4	0.0885	0.086661508	0.001838492
692.44	0.09048	0.086661509	0.003818491
692.48	0.09048	0.086661509	0.003818491
692.52	0.08748	0.08666151	0.00081849
692.56	0.08839	0.08666151	0.00172849
692.6	0.0858	0.08666151	-0.00086151
692.64	0.09308	0.086661511	0.006418489
692.68	0.08483	0.086661511	-0.001831511
692.72	0.08284	0.086661512	-0.003821512
692.76	0.08279	0.086661512	-0.003871512
692.8	0.08834	0.086661513	0.001678487
692.84	0.09807	0.086661513	0.011408487
692.88	0.08595	0.086661514	-0.000711514
692.92	0.08585	0.086661514	-0.000811514
692.96	0.08967	0.086661515	0.003008485
693	0.08855	0.086661515	0.001888485
693.04	0.09415	0.086661516	0.007488484
693.08	0.0942	0.086661516	0.007538484
693.12	0.09145	0.086661517	0.004788483
693.16	0.08829	0.086661517	0.001628483
693.2	0.09135	0.086661518	0.004688482
693.24	0.08773	0.086661518	0.001068482
693.28	0.09267	0.086661518	0.006008482
693.32	0.08956	0.086661519	0.002898481
693.36	0.08956	0.086661519	0.002898481
693.4	0.08844	0.08666152	0.00177848
693.44	0.0885	0.08666152	0.00183848
693.48	0.08666	0.086661521	-1.52079E-06
693.52	0.0857	0.086661521	-0.000961521
693.56	0.0917	0.086661522	0.005038478
693.6	0.0914	0.086661522	0.004738478
693.64	0.09135	0.086661523	0.004688477
693.68	0.08773	0.086661523	0.001068477
693.72	0.08651	0.086661524	-0.000151524
693.76	0.08641	0.086661524	-0.000251524
693.8	0.08671	0.086661525	4.84755E-05
693.84	0.08941	0.086661525	0.002748475
693.88	0.08391	0.086661525	-0.002751525
693.92	0.0858	0.086661526	-0.000861526
693.96	0.086	0.086661526	-0.000661526
694	0.08661	0.086661527	-5.15269E-05
694.04	0.08946	0.086661527	0.002798473
694.08	0.08829	0.086661528	0.001628472
694.12	0.08585	0.086661528	-0.000811528
694.16	0.09145	0.086661529	0.004788471
694.2	0.0915	0.086661529	0.004838471
694.24	0.09145	0.08666153	0.00478847
694.28	0.08977	0.08666153	0.00310847
694.32	0.08788	0.086661531	0.001218469
694.36	0.0916	0.086661531	0.004938469
694.4	0.08381	0.086661532	-0.002851532
694.44	0.09476	0.086661532	0.008098468
694.48	0.08712	0.086661532	0.000458468
694.52	0.0888	0.086661533	0.002138467
694.56	0.0887	0.086661533	0.002038467
694.6	0.08651	0.086661534	-0.000151534
694.64	0.08758	0.086661534	0.000918466
694.68	0.0885	0.086661535	0.001838465
694.72	0.08834	0.086661535	0.001678465
694.76	0.0858	0.086661536	-0.000861536
694.8	0.09221	0.086661536	0.005548464
694.84	0.09231	0.086661537	0.005648463
694.88	0.08478	0.086661537	-0.001881537
694.92	0.09216	0.086661538	0.005498462
694.96	0.08844	0.086661538	0.001778462
695	0.0886	0.086661539	0.001938461
695.04	0.0831	0.086661539	-0.003561539
695.08	0.09135	0.08666154	0.00468846
695.12	0.0913	0.08666154	0.00463846
695.16	0.0886	0.08666154	0.00193846
695.2	0.08595	0.086661541	-0.000711541
695.24	0.08773	0.086661541	0.001068459
695.28	0.08656	0.086661542	-0.000101542
695.32	0.0913	0.086661542	0.004638458
695.36	0.08284	0.086661543	-0.003821543
695.4	0.0857	0.086661543	-0.000961543
695.44	0.0858	0.086661544	-0.000861544
695.48	0.09338	0.086661544	0.006718456
695.52	0.09379	0.086661545	0.007128455
695.56	0.08783	0.086661545	0.001168455
695.6	0.08096	0.086661546	-0.005701546
695.64	0.08381	0.086661546	-0.002851546
695.68	0.08483	0.086661547	-0.001831547
695.72	0.08483	0.086661547	-0.001831547
695.76	0.08656	0.086661547	-0.000101547
695.8	0.09033	0.086661548	0.003668452
695.84	0.08946	0.086661548	0.002798452
695.88	0.08447	0.086661549	-0.002191549
695.92	0.09155	0.086661549	0.004888451
695.96	0.0887	0.08666155	0.00203845
696	0.08855	0.08666155	0.00188845
696.04	0.08788	0.086661551	0.001218449
696.08	0.08488	0.086661551	-0.001781551
696.12	0.0858	0.086661552	-0.000861552
696.16	0.08936	0.086661552	0.002698448
696.2	0.08855	0.086661553	0.001888447
696.24	0.08585	0.086661553	-0.000811553
696.28	0.08697	0.086661554	0.000308446
696.32	0.08666	0.086661554	-1.55405E-06
696.36	0.08585	0.086661555	-0.000811555
696.4	0.09135	0.086661555	0.004688445
696.44	0.08967	0.086661555	0.003008445
696.48	0.08585	0.086661556	-0.000811556
696.52	0.08967	0.086661556	0.003008444
696.56	0.08956	0.086661557	0.002898443
696.6	0.08951	0.086661557	0.002848443
696.64	0.09043	0.086661558	0.003768442
696.68	0.08671	0.086661558	4.84417E-05
696.72	0.08783	0.086661559	0.001168441
696.76	0.0858	0.086661559	-0.000861559
696.8	0.08274	0.08666156	-0.00392156
696.84	0.09328	0.08666156	0.00661844
696.88	0.08753	0.086661561	0.000868439
696.92	0.08778	0.086661561	0.001118439
696.96	0.08682	0.086661562	0.000158438
697	0.09155	0.086661562	0.004888438
697.04	0.08661	0.086661562	-5.15625E-05
697.08	0.08687	0.086661563	0.000208437
697.12	0.08885	0.086661563	0.002188437
697.16	0.08778	0.086661564	0.001118436
697.2	0.08763	0.086661564	0.000968436
697.24	0.08844	0.086661565	0.001778435
697.28	0.08401	0.086661565	-0.002651565
697.32	0.0915	0.086661566	0.004838434
697.36	0.08962	0.086661566	0.002958434
697.4	0.08468	0.086661567	-0.001981567
697.44	0.08412	0.086661567	-0.002541567
697.48	0.08391	0.086661568	-0.002751568
697.52	0.08773	0.086661568	0.001068432
697.56	0.08834	0.086661569	0.001678431
697.6	0.0886	0.086661569	0.001938431
697.64	0.08483	0.08666157	-0.00183157
697.68	0.08962	0.08666157	0.00295843
697.72	0.08748	0.08666157	0.00081843
697.76	0.08855	0.086661571	0.001888429
697.8	0.0887	0.086661571	0.002038429
697.84	0.09242	0.086661572	0.005758428
697.88	0.09247	0.086661572	0.005808428
697.92	0.08962	0.086661573	0.002958427
697.96	0.08605	0.086661573	-0.000611573
698	0.09165	0.086661574	0.004988426
698.04	0.08376	0.086661574	-0.002901574
698.08	0.08407	0.086661575	-0.002591575
698.12	0.08661	0.086661575	-5.15751E-05
698.16	0.08381	0.086661576	-0.002851576
698.2	0.08875	0.086661576	0.002088424
698.24	0.0858	0.086661577	-0.000861577
698.28	0.08748	0.086661577	0.000818423
698.32	0.09038	0.086661577	0.003718423
698.36	0.09028	0.086661578	0.003618422
698.4	0.09231	0.086661578	0.005648422
698.44	0.0886	0.086661579	0.001938421
698.48	0.08773	0.086661579	0.001068421
698.52	0.08478	0.08666158	-0.00188158
698.56	0.09058	0.08666158	0.00391842
698.6	0.08386	0.086661581	-0.002801581
698.64	0.09028	0.086661581	0.003618419
698.68	0.09048	0.086661582	0.003818418
698.72	0.08809	0.086661582	0.001428418
698.76	0.09114	0.086661583	0.004478417
698.8	0.08783	0.086661583	0.001168417
698.84	0.09048	0.086661584	0.003818416
698.88	0.0885	0.086661584	0.001838416
698.92	0.09216	0.086661584	0.005498416
698.96	0.09231	0.086661585	0.005648415
699	0.09114	0.086661585	0.004478415
699.04	0.0944	0.086661586	0.007738414
699.08	0.08962	0.086661586	0.002958414
699.12	0.08967	0.086661587	0.003008413
699.16	0.08962	0.086661587	0.002958413
699.2	0.08778	0.086661588	0.001118412
699.24	0.08661	0.086661588	-5.15882E-05
699.28	0.08671	0.086661589	4.84113E-05
699.32	0.08844	0.086661589	0.001778411
699.36	0.0914	0.08666159	0.00473841
699.4	0.08941	0.08666159	0.00274841
699.44	0.0885	0.086661591	0.001838409
699.48	0.08844	0.086661591	0.001778409
699.52	0.08687	0.086661592	0.000208408
699.56	0.08661	0.086661592	-5.1592E-05
699.6	0.08936	0.086661592	0.002698408
699.64	0.08666	0.086661593	-1.59292E-06
699.68	0.08844	0.086661593	0.001778407
699.72	0.08121	0.086661594	-0.005451594
699.76	0.08855	0.086661594	0.001888406
699.8	0.08773	0.086661595	0.001068405
699.84	0.08758	0.086661595	0.000918405
699.88	0.09405	0.086661596	0.007388404
699.92	0.0858	0.086661596	-0.000861596
699.96	0.0914	0.086661597	0.004738403