	m	t	
f	1.06318E-08	0.094184	
			
			
X in nm	Y Signal 	f	y-f
570.04	0.09313	0.094190061	-0.001060061
570.08	0.09135	0.094190061	-0.002840061
570.12	0.09613	0.094190061	0.001939939
570.16	0.09506	0.094190062	0.000869938
570.2	0.08931	0.094190062	-0.004880062
570.24	0.09216	0.094190063	-0.002030063
570.28	0.10005	0.094190063	0.005859937
570.32	0.09995	0.094190064	0.005759936
570.36	0.0944	0.094190064	0.000209936
570.4	0.09343	0.094190064	-0.000760064
570.44	0.09338	0.094190065	-0.000810065
570.48	0.09496	0.094190065	0.000769935
570.52	0.08972	0.094190066	-0.004470066
570.56	0.09425	0.094190066	5.99339E-05
570.6	0.0945	0.094190067	0.000309933
570.64	0.09613	0.094190067	0.001939933
570.68	0.09481	0.094190067	0.000619933
570.72	0.09685	0.094190068	0.002659932
570.76	0.09532	0.094190068	0.001129932
570.8	0.09318	0.094190069	-0.001010069
570.84	0.09771	0.094190069	0.003519931
570.88	0.09807	0.094190069	0.003879931
570.92	0.10087	0.09419007	0.00667993
570.96	0.09623	0.09419007	0.00203993
571	0.09532	0.094190071	0.001129929
571.04	0.10275	0.094190071	0.008559929
571.08	0.09623	0.094190072	0.002039928
571.12	0.09537	0.094190072	0.001179928
571.16	0.09791	0.094190072	0.003719928
571.2	0.09797	0.094190073	0.003779927
571.24	0.09415	0.094190073	-4.00733E-05
571.28	0.10092	0.094190074	0.006729926
571.32	0.09903	0.094190074	0.004839926
571.36	0.09903	0.094190075	0.004839925
571.4	0.1028	0.094190075	0.008609925
571.44	0.10464	0.094190075	0.010449925
571.48	0.10464	0.094190076	0.010449924
571.52	0.10657	0.094190076	0.012379924
571.56	0.10555	0.094190077	0.011359923
571.6	0.10764	0.094190077	0.013449923
571.64	0.10453	0.094190078	0.010339922
571.68	0.10453	0.094190078	0.010339922
571.72	0.1	0.094190078	0.005809922
571.76	0.10357	0.094190079	0.009379921
571.8	0.10362	0.094190079	0.009429921
571.84	0.09725	0.09419008	0.00305992
571.88	0.09511	0.09419008	0.00091992
571.92	0.1054	0.094190081	0.011209919
571.96	0.10275	0.094190081	0.008559919
572	0.09802	0.094190081	0.003829919
572.04	0.09909	0.094190082	0.004899918
572.08	0.09919	0.094190082	0.004999918
572.12	0.09333	0.094190083	-0.000860083
572.16	0.10082	0.094190083	0.006629917
572.2	0.09893	0.094190084	0.004739916
572.24	0.09333	0.094190084	-0.000860084
572.28	0.09435	0.094190084	0.000159916
572.32	0.09639	0.094190085	0.002199915
572.36	0.09613	0.094190085	0.001939915
572.4	0.0971	0.094190086	0.002909914
572.44	0.09405	0.094190086	-0.000140086
572.48	0.09323	0.094190086	-0.000960086
572.52	0.09415	0.094190087	-4.00869E-05
572.56	0.09547	0.094190087	0.001279913
572.6	0.08956	0.094190088	-0.004630088
572.64	0.0886	0.094190088	-0.005590088
572.68	0.0885	0.094190089	-0.005690089
572.72	0.09323	0.094190089	-0.000960089
572.76	0.09338	0.094190089	-0.000810089
572.8	0.0915	0.09419009	-0.00269009
572.84	0.0941	0.09419009	-9.00903E-05
572.88	0.09333	0.094190091	-0.000860091
572.92	0.09038	0.094190091	-0.003810091
572.96	0.09043	0.094190092	-0.003760092
573	0.08396	0.094190092	-0.010230092
573.04	0.09145	0.094190092	-0.002740092
573.08	0.09155	0.094190093	-0.002640093
573.12	0.09043	0.094190093	-0.003760093
573.16	0.09328	0.094190094	-0.000910094
573.2	0.09048	0.094190094	-0.003710094
573.24	0.09023	0.094190095	-0.003960095
573.28	0.08926	0.094190095	-0.004930095
573.32	0.08855	0.094190095	-0.005640095
573.36	0.09236	0.094190096	-0.001830096
573.4	0.09415	0.094190096	-4.00963E-05
573.44	0.08844	0.094190097	-0.005750097
573.48	0.09216	0.094190097	-0.002030097
573.52	0.1001	0.094190098	0.005909902
573.56	0.10005	0.094190098	0.005859902
573.6	0.10214	0.094190098	0.007949902
573.64	0.09506	0.094190099	0.000869901
573.68	0.1027	0.094190099	0.008509901
573.72	0.09914	0.0941901	0.0049499
573.76	0.09598	0.0941901	0.0017899
573.8	0.10448	0.094190101	0.010289899
573.84	0.10448	0.094190101	0.010289899
573.88	0.10535	0.094190101	0.011159899
573.92	0.1084	0.094190102	0.014209898
573.96	0.1057	0.094190102	0.011509898
574	0.11314	0.094190103	0.018949897
574.04	0.10754	0.094190103	0.013349897
574.08	0.11502	0.094190104	0.020829896
574.12	0.1084	0.094190104	0.014209896
574.16	0.10835	0.094190104	0.014159896
574.2	0.11421	0.094190105	0.020019895
574.24	0.10932	0.094190105	0.015129895
574.28	0.11894	0.094190106	0.024749894
574.32	0.1194	0.094190106	0.025209894
574.36	0.11869	0.094190106	0.024499894
574.4	0.12169	0.094190107	0.027499893
574.44	0.12179	0.094190107	0.027599893
574.48	0.12251	0.094190108	0.028319892
574.52	0.11589	0.094190108	0.021699892
574.56	0.12057	0.094190109	0.026379891
574.6	0.12368	0.094190109	0.029489891
574.64	0.11411	0.094190109	0.019919891
574.68	0.12337	0.09419011	0.02917989
574.72	0.12312	0.09419011	0.02892989
574.76	0.12648	0.094190111	0.032289889
574.8	0.11609	0.094190111	0.021899889
574.84	0.11747	0.094190112	0.023279888
574.88	0.11304	0.094190112	0.018849888
574.92	0.11706	0.094190112	0.022869888
574.96	0.11782	0.094190113	0.023629887
575	0.11971	0.094190113	0.025519887
575.04	0.12001	0.094190114	0.025819886
575.08	0.11502	0.094190114	0.020829886
575.12	0.12337	0.094190115	0.029179885
575.16	0.11864	0.094190115	0.024449885
575.2	0.12546	0.094190115	0.031269885
575.24	0.13473	0.094190116	0.040539884
575.28	0.13035	0.094190116	0.036159884
575.32	0.13009	0.094190117	0.035899883
575.36	0.13355	0.094190117	0.039359883
575.4	0.12622	0.094190118	0.032029882
575.44	0.14236	0.094190118	0.048169882
575.48	0.12811	0.094190118	0.033919882
575.52	0.13763	0.094190119	0.043439881
575.56	0.14262	0.094190119	0.048429881
575.6	0.14236	0.09419012	0.04816988
575.64	0.14348	0.09419012	0.04928988
575.68	0.13585	0.094190121	0.041659879
575.72	0.14511	0.094190121	0.050919879
575.76	0.15351	0.094190121	0.059319879
575.8	0.15473	0.094190122	0.060539878
575.84	0.16319	0.094190122	0.068999878
575.88	0.15372	0.094190123	0.059529877
575.92	0.15367	0.094190123	0.059479877
575.96	0.17067	0.094190123	0.076479877
576	0.17342	0.094190124	0.079229876
576.04	0.17245	0.094190124	0.078259876
576.08	0.17031	0.094190125	0.076119875
576.12	0.17739	0.094190125	0.083199875
576.16	0.17337	0.094190126	0.079179874
576.2	0.17342	0.094190126	0.079229874
576.24	0.167	0.094190126	0.072809874
576.28	0.17327	0.094190127	0.079079873
576.32	0.16232	0.094190127	0.068129873
576.36	0.16039	0.094190128	0.066199872
576.4	0.16777	0.094190128	0.073579872
576.44	0.15484	0.094190129	0.060649871
576.48	0.15168	0.094190129	0.057489871
576.52	0.15173	0.094190129	0.057539871
576.56	0.15107	0.09419013	0.05687987
576.6	0.147	0.09419013	0.05280987
576.64	0.14516	0.094190131	0.050969869
576.68	0.14211	0.094190131	0.047919869
576.72	0.13865	0.094190132	0.044459868
576.76	0.12994	0.094190132	0.035749868
576.8	0.13035	0.094190132	0.036159868
576.84	0.12739	0.094190133	0.033199867
576.88	0.12434	0.094190133	0.030149867
576.92	0.12352	0.094190134	0.029329866
576.96	0.12245	0.094190134	0.028259866
577	0.1112	0.094190135	0.017009865
577.04	0.11125	0.094190135	0.017059865
577.08	0.1113	0.094190135	0.017109865
577.12	0.10265	0.094190136	0.008459864
577.16	0.10168	0.094190136	0.007489864
577.2	0.09511	0.094190137	0.000919863
577.24	0.09517	0.094190137	0.000979863
577.28	0.09079	0.094190138	-0.003400138
577.32	0.09613	0.094190138	0.001939862
577.36	0.0944	0.094190138	0.000209862
577.4	0.09435	0.094190139	0.000159861
577.44	0.09491	0.094190139	0.000719861
577.48	0.08676	0.09419014	-0.00743014
577.52	0.09124	0.09419014	-0.00295014
577.56	0.08748	0.094190141	-0.006710141
577.6	0.08666	0.094190141	-0.007530141
577.64	0.08936	0.094190141	-0.004830141
577.68	0.08982	0.094190142	-0.004370142
577.72	0.08778	0.094190142	-0.006410142
577.76	0.09063	0.094190143	-0.003560143
577.8	0.09033	0.094190143	-0.003860143
577.84	0.09165	0.094190143	-0.002540143
577.88	0.09053	0.094190144	-0.003660144
577.92	0.09226	0.094190144	-0.001930144
577.96	0.09211	0.094190145	-0.002080145
578	0.09695	0.094190145	0.002759855
578.04	0.0916	0.094190146	-0.002590146
578.08	0.09074	0.094190146	-0.003450146
578.12	0.09623	0.094190146	0.002039854
578.16	0.08956	0.094190147	-0.004630147
578.2	0.09058	0.094190147	-0.003610147
578.24	0.0886	0.094190148	-0.005590148
578.28	0.0886	0.094190148	-0.005590148
578.32	0.09435	0.094190149	0.000159851
578.36	0.08865	0.094190149	-0.005540149
578.4	0.09328	0.094190149	-0.000910149
578.44	0.09405	0.09419015	-0.00014015
578.48	0.09517	0.09419015	0.00097985
578.52	0.09053	0.094190151	-0.003660151
578.56	0.09033	0.094190151	-0.003860151
578.6	0.09038	0.094190152	-0.003810152
578.64	0.0942	0.094190152	9.84802E-06
578.68	0.09236	0.094190152	-0.001830152
578.72	0.09165	0.094190153	-0.002540153
578.76	0.09817	0.094190153	0.003979847
578.8	0.0943	0.094190154	0.000109846
578.84	0.0943	0.094190154	0.000109846
578.88	0.0941	0.094190155	-9.01545E-05
578.92	0.09537	0.094190155	0.001179845
578.96	0.09236	0.094190155	-0.001830155
579	0.0944	0.094190156	0.000209844
579.04	0.0943	0.094190156	0.000109844
579.08	0.09425	0.094190157	5.98433E-05
579.12	0.09919	0.094190157	0.004999843
579.16	0.09888	0.094190158	0.004689842
579.2	0.09629	0.094190158	0.002099842
579.24	0.09634	0.094190158	0.002149842
579.28	0.09623	0.094190159	0.002039841
579.32	0.09898	0.094190159	0.004789841
579.36	0.10362	0.09419016	0.00942984
579.4	0.09547	0.09419016	0.00127984
579.44	0.09532	0.09419016	0.00112984
579.48	0.10265	0.094190161	0.008459839
579.52	0.1056	0.094190161	0.011409839
579.56	0.10285	0.094190162	0.008659838
579.6	0.10535	0.094190162	0.011159838
579.64	0.10565	0.094190163	0.011459837
579.68	0.1028	0.094190163	0.008609837
579.72	0.1056	0.094190163	0.011409837
579.76	0.1055	0.094190164	0.011309836
579.8	0.10616	0.094190164	0.011969836
579.84	0.10754	0.094190165	0.013349835
579.88	0.11609	0.094190165	0.021899835
579.92	0.11319	0.094190166	0.018999834
579.96	0.10754	0.094190166	0.013349834
580	0.11482	0.094190166	0.020629834
580.04	0.11487	0.094190167	0.020679833
580.08	0.11222	0.094190167	0.018029833
580.12	0.10815	0.094190168	0.013959832
580.16	0.11207	0.094190168	0.017879832
580.2	0.10906	0.094190169	0.014869831
580.24	0.11222	0.094190169	0.018029831
580.28	0.11706	0.094190169	0.022869831
580.32	0.11018	0.09419017	0.01598983
580.36	0.11024	0.09419017	0.01604983
580.4	0.11319	0.094190171	0.018999829
580.44	0.10942	0.094190171	0.015229829
580.48	0.10912	0.094190172	0.014929828
580.52	0.1112	0.094190172	0.017009828
580.56	0.11288	0.094190172	0.018689828
580.6	0.12072	0.094190173	0.026529827
580.64	0.12067	0.094190173	0.026479827
580.68	0.11482	0.094190174	0.020629826
580.72	0.12918	0.094190174	0.034989826
580.76	0.12546	0.094190175	0.031269825
580.8	0.13198	0.094190175	0.037789825
580.84	0.12938	0.094190175	0.035189825
580.88	0.12536	0.094190176	0.031169824
580.92	0.12536	0.094190176	0.031169824
580.96	0.13014	0.094190177	0.035949823
581	0.12627	0.094190177	0.032079823
581.04	0.13182	0.094190178	0.037629822
581.08	0.14053	0.094190178	0.046339822
581.12	0.14323	0.094190178	0.049039822
581.16	0.15092	0.094190179	0.056729821
581.2	0.14409	0.094190179	0.049899821
581.24	0.1442	0.09419018	0.05000982
581.28	0.14796	0.09419018	0.05376982
581.32	0.14511	0.09419018	0.05091982
581.36	0.16395	0.094190181	0.069759819
581.4	0.1584	0.094190181	0.064209819
581.44	0.16028	0.094190182	0.066089818
581.48	0.16196	0.094190182	0.067769818
581.52	0.16232	0.094190183	0.068129817
581.56	0.17052	0.094190183	0.076329817
581.6	0.16334	0.094190183	0.069149817
581.64	0.16889	0.094190184	0.074699816
581.68	0.17245	0.094190184	0.078259816
581.72	0.1723	0.094190185	0.078109815
581.76	0.16894	0.094190185	0.074749815
581.8	0.16868	0.094190186	0.074489814
581.84	0.16721	0.094190186	0.073019814
581.88	0.16583	0.094190186	0.071639814
581.92	0.15753	0.094190187	0.063339813
581.96	0.16039	0.094190187	0.066199813
582	0.15479	0.094190188	0.060599812
582.04	0.14812	0.094190188	0.053929812
582.08	0.14705	0.094190189	0.052859811
582.12	0.14694	0.094190189	0.052749811
582.16	0.14878	0.094190189	0.054589811
582.2	0.13829	0.09419019	0.04409981
582.24	0.13478	0.09419019	0.04058981
582.28	0.14139	0.094190191	0.047199809
582.32	0.12831	0.094190191	0.034119809
582.36	0.12632	0.094190192	0.032129808
582.4	0.12648	0.094190192	0.032289808
582.44	0.12454	0.094190192	0.030349808
582.48	0.12347	0.094190193	0.029279807
582.52	0.12083	0.094190193	0.026639807
582.56	0.11797	0.094190194	0.023779806
582.6	0.11624	0.094190194	0.022049806
582.64	0.10835	0.094190195	0.014159805
582.68	0.10835	0.094190195	0.014159805
582.72	0.10815	0.094190195	0.013959805
582.76	0.1028	0.094190196	0.008609804
582.8	0.1054	0.094190196	0.011209804
582.84	0.09893	0.094190197	0.004739803
582.88	0.09802	0.094190197	0.003829803
582.92	0.09145	0.094190197	-0.002740197
582.96	0.0945	0.094190198	0.000309802
583	0.0942	0.094190198	9.80166E-06
583.04	0.09043	0.094190199	-0.003760199
583.08	0.09135	0.094190199	-0.002840199
583.12	0.09343	0.0941902	-0.0007602
583.16	0.09781	0.0941902	0.0036198
583.2	0.08931	0.0941902	-0.0048802
583.24	0.0943	0.094190201	0.000109799
583.28	0.09399	0.094190201	-0.000200201
583.32	0.09511	0.094190202	0.000919798
583.36	0.09328	0.094190202	-0.000910202
583.4	0.0885	0.094190203	-0.005690203
583.44	0.09623	0.094190203	0.002039797
583.48	0.09058	0.094190203	-0.003610203
583.52	0.09354	0.094190204	-0.000650204
583.56	0.09909	0.094190204	0.004899796
583.6	0.09903	0.094190205	0.004839795
583.64	0.09028	0.094190205	-0.003910205
583.68	0.09242	0.094190206	-0.001770206
583.72	0.08753	0.094190206	-0.006660206
583.76	0.09145	0.094190206	-0.002740206
583.8	0.09715	0.094190207	0.002959793
583.84	0.09593	0.094190207	0.001739793
583.88	0.09598	0.094190208	0.001789792
583.92	0.0971	0.094190208	0.002909792
583.96	0.09797	0.094190209	0.003779791
584	0.0999	0.094190209	0.005709791
584.04	0.09221	0.094190209	-0.001980209
584.08	0.09822	0.09419021	0.00402979
584.12	0.09797	0.09419021	0.00377979
584.16	0.09797	0.094190211	0.003779789
584.2	0.09893	0.094190211	0.004739789
584.24	0.09715	0.094190212	0.002959788
584.28	0.10087	0.094190212	0.006679788
584.32	0.10448	0.094190212	0.010289788
584.36	0.10458	0.094190213	0.010389787
584.4	0.1055	0.094190213	0.011309787
584.44	0.10769	0.094190214	0.013499786
584.48	0.10744	0.094190214	0.013249786
584.52	0.10112	0.094190214	0.006929786
584.56	0.10947	0.094190215	0.015279785
584.6	0.11629	0.094190215	0.022099785
584.64	0.11227	0.094190216	0.018079784
584.68	0.11207	0.094190216	0.017879784
584.72	0.11792	0.094190217	0.023729783
584.76	0.11777	0.094190217	0.023579783
584.8	0.11675	0.094190217	0.022559783
584.84	0.11701	0.094190218	0.022819782
584.88	0.11981	0.094190218	0.025619782
584.92	0.12454	0.094190219	0.030349781
584.96	0.12093	0.094190219	0.026739781
585	0.11904	0.09419022	0.02484978
585.04	0.11609	0.09419022	0.02189978
585.08	0.11594	0.09419022	0.02174978
585.12	0.11431	0.094190221	0.020119779
585.16	0.11782	0.094190221	0.023629779
585.2	0.11675	0.094190222	0.022559778
585.24	0.11212	0.094190222	0.017929778
585.28	0.1138	0.094190223	0.019609777
585.32	0.11492	0.094190223	0.020729777
585.36	0.11497	0.094190223	0.020779777
585.4	0.11207	0.094190224	0.017879776
585.44	0.11685	0.094190224	0.022659776
585.48	0.10754	0.094190225	0.013349775
585.52	0.11202	0.094190225	0.017829775
585.56	0.10657	0.094190226	0.012379774
585.6	0.10647	0.094190226	0.012279774
585.64	0.10642	0.094190226	0.012229774
585.68	0.10448	0.094190227	0.010289773
585.72	0.1027	0.094190227	0.008509773
585.76	0.10087	0.094190228	0.006679772
585.8	0.10947	0.094190228	0.015279772
585.84	0.10066	0.094190229	0.006469771
585.88	0.10448	0.094190229	0.010289771
585.92	0.10637	0.094190229	0.012179771
585.96	0.10657	0.09419023	0.01237977
586	0.10316	0.09419023	0.00896977
586.04	0.09791	0.094190231	0.003719769
586.08	0.10453	0.094190231	0.010339769
586.12	0.09832	0.094190232	0.004129768
586.16	0.09898	0.094190232	0.004789768
586.2	0.10464	0.094190232	0.010449768
586.24	0.10464	0.094190233	0.010449767
586.28	0.1084	0.094190233	0.014209767
586.32	0.10469	0.094190234	0.010499766
586.36	0.11482	0.094190234	0.020629766
586.4	0.11757	0.094190234	0.023379766
586.44	0.12337	0.094190235	0.029179765
586.48	0.12337	0.094190235	0.029179765
586.52	0.12358	0.094190236	0.029389764
586.56	0.12088	0.094190236	0.026689764
586.6	0.12536	0.094190237	0.031169763
586.64	0.13401	0.094190237	0.039819763
586.68	0.13753	0.094190237	0.043339763
586.72	0.13182	0.094190238	0.037629762
586.76	0.14022	0.094190238	0.046029762
586.8	0.14216	0.094190239	0.047969761
586.84	0.14211	0.094190239	0.047919761
586.88	0.14206	0.09419024	0.04786976
586.92	0.1526	0.09419024	0.05840976
586.96	0.14776	0.09419024	0.05356976
587	0.1471	0.094190241	0.052909759
587.04	0.1554	0.094190241	0.061209759
587.08	0.15641	0.094190242	0.062219758
587.12	0.15652	0.094190242	0.062329758
587.16	0.15285	0.094190243	0.058659757
587.2	0.16512	0.094190243	0.070929757
587.24	0.15265	0.094190243	0.058459757
587.28	0.16049	0.094190244	0.066299756
587.32	0.15738	0.094190244	0.063189756
587.36	0.15173	0.094190245	0.057539755
587.4	0.14883	0.094190245	0.054639755
587.44	0.14883	0.094190246	0.054639754
587.48	0.1471	0.094190246	0.052909754
587.52	0.15173	0.094190246	0.057539754
587.56	0.14435	0.094190247	0.050159753
587.6	0.14226	0.094190247	0.048069753
587.64	0.13401	0.094190248	0.039819752
587.68	0.13467	0.094190248	0.040479752
587.72	0.13462	0.094190249	0.040429751
587.76	0.13488	0.094190249	0.040689751
587.8	0.12989	0.094190249	0.035699751
587.84	0.13014	0.09419025	0.03594975
587.88	0.12169	0.09419025	0.02749975
587.92	0.11696	0.094190251	0.022769749
587.96	0.11629	0.094190251	0.022099749
588	0.11599	0.094190251	0.021799749
588.04	0.12072	0.094190252	0.026529748
588.08	0.11039	0.094190252	0.016199748
588.12	0.1109	0.094190253	0.016709747
588.16	0.10927	0.094190253	0.015079747
588.2	0.10728	0.094190254	0.013089746
588.24	0.10387	0.094190254	0.009679746
588.28	0.09893	0.094190254	0.004739746
588.32	0.09888	0.094190255	0.004689745
588.36	0.09511	0.094190255	0.000919745
588.4	0.09537	0.094190256	0.001179744
588.44	0.09791	0.094190256	0.003719744
588.48	0.0914	0.094190257	-0.002790257
588.52	0.08946	0.094190257	-0.004730257
588.56	0.09537	0.094190257	0.001179743
588.6	0.09511	0.094190258	0.000919742
588.64	0.1001	0.094190258	0.005909742
588.68	0.09517	0.094190259	0.000979741
588.72	0.09155	0.094190259	-0.002640259
588.76	0.08671	0.09419026	-0.00748026
588.8	0.09506	0.09419026	0.00086974
588.84	0.0971	0.09419026	0.00290974
588.88	0.097	0.094190261	0.002809739
588.92	0.09705	0.094190261	0.002859739
588.96	0.0943	0.094190262	0.000109738
589	0.10183	0.094190262	0.007639738
589.04	0.10443	0.094190263	0.010239737
589.08	0.10194	0.094190263	0.007749737
589.12	0.10377	0.094190263	0.009579737
589.16	0.10474	0.094190264	0.010549736
589.2	0.10464	0.094190264	0.010449736
589.24	0.11039	0.094190265	0.016199735
589.28	0.11411	0.094190265	0.019919735
589.32	0.11013	0.094190266	0.015939734
589.36	0.11125	0.094190266	0.017059734
589.4	0.11772	0.094190266	0.023529734
589.44	0.11976	0.094190267	0.025569733
589.48	0.11996	0.094190267	0.025769733
589.52	0.11884	0.094190268	0.024649732
589.56	0.11976	0.094190268	0.025569732
589.6	0.12429	0.094190269	0.030099731
589.64	0.12989	0.094190269	0.035699731
589.68	0.13676	0.094190269	0.042569731
589.72	0.13238	0.09419027	0.03818973
589.76	0.12826	0.09419027	0.03406973
589.8	0.12821	0.094190271	0.034019729
589.84	0.13452	0.094190271	0.040329729
589.88	0.13661	0.094190271	0.042419729
589.92	0.14053	0.094190272	0.046339728
589.96	0.15092	0.094190272	0.056729728
590	0.14969	0.094190273	0.055499727
590.04	0.14593	0.094190273	0.051739727
590.08	0.14608	0.094190274	0.051889726
590.12	0.14725	0.094190274	0.053059726
590.16	0.13686	0.094190274	0.042669726
590.2	0.14145	0.094190275	0.047259725
590.24	0.14404	0.094190275	0.049849725
590.28	0.14348	0.094190276	0.049289724
590.32	0.14414	0.094190276	0.049949724
590.36	0.14399	0.094190277	0.049799723
590.4	0.13284	0.094190277	0.038649723
590.44	0.14145	0.094190277	0.047259723
590.48	0.14145	0.094190278	0.047259722
590.52	0.13656	0.094190278	0.042369722
590.56	0.13473	0.094190279	0.040539721
590.6	0.1388	0.094190279	0.044609721
590.64	0.14608	0.09419028	0.05188972
590.68	0.14618	0.09419028	0.05198972
590.72	0.13019	0.09419028	0.03599972
590.76	0.14262	0.094190281	0.048429719
590.8	0.12912	0.094190281	0.034929719
590.84	0.12994	0.094190282	0.035749718
590.88	0.12831	0.094190282	0.034119718
590.92	0.12739	0.094190283	0.033199717
590.96	0.12709	0.094190283	0.032899717
591	0.11981	0.094190283	0.025619717
591.04	0.1224	0.094190284	0.028209716
591.08	0.11701	0.094190284	0.022819716
591.12	0.12169	0.094190285	0.027499715
591.16	0.1196	0.094190285	0.025409715
591.2	0.11629	0.094190286	0.022099714
591.24	0.11782	0.094190286	0.023629714
591.28	0.11792	0.094190286	0.023729714
591.32	0.114	0.094190287	0.019809713
591.36	0.11472	0.094190287	0.020529713
591.4	0.10927	0.094190288	0.015079712
591.44	0.1083	0.094190288	0.014109712
591.48	0.1084	0.094190288	0.014209712
591.52	0.1054	0.094190289	0.011209711
591.56	0.10576	0.094190289	0.011569711
591.6	0.1056	0.09419029	0.01140971
591.64	0.10372	0.09419029	0.00952971
591.68	0.10372	0.094190291	0.009529709
591.72	0.09898	0.094190291	0.004789709
591.76	0.10367	0.094190291	0.009479709
591.8	0.10168	0.094190292	0.007489708
591.84	0.10173	0.094190292	0.007539708
591.88	0.1052	0.094190293	0.011009707
591.92	0.10448	0.094190293	0.010289707
591.96	0.09695	0.094190294	0.002759706
592	0.10275	0.094190294	0.008559706
592.04	0.10285	0.094190294	0.008659706
592.08	0.10168	0.094190295	0.007489705
592.12	0.09394	0.094190295	-0.000250295
592.16	0.0942	0.094190296	9.70427E-06
592.2	0.10005	0.094190296	0.005859704
592.24	0.09354	0.094190297	-0.000650297
592.28	0.09878	0.094190297	0.004589703
592.32	0.09323	0.094190297	-0.000960297
592.36	0.09608	0.094190298	0.001889702
592.4	0.10255	0.094190298	0.008359702
592.44	0.10255	0.094190299	0.008359701
592.48	0.097	0.094190299	0.002809701
592.52	0.09236	0.0941903	-0.0018303
592.56	0.09328	0.0941903	-0.0009103
592.6	0.09888	0.0941903	0.0046897
592.64	0.09705	0.094190301	0.002859699
592.68	0.09909	0.094190301	0.004899699
592.72	0.09903	0.094190302	0.004839698
592.76	0.10352	0.094190302	0.009329698
592.8	0.09812	0.094190303	0.003929697
592.84	0.09639	0.094190303	0.002199697
592.88	0.09695	0.094190303	0.002759697
592.92	0.09608	0.094190304	0.001889696
592.96	0.09323	0.094190304	-0.000960304
593	0.09608	0.094190305	0.001889695
593.04	0.09603	0.094190305	0.001839695
593.08	0.09776	0.094190306	0.003569694
593.12	0.1054	0.094190306	0.011209694
593.16	0.09705	0.094190306	0.002859694
593.2	0.10352	0.094190307	0.009329693
593.24	0.1028	0.094190307	0.008609693
593.28	0.10535	0.094190308	0.011159692
593.32	0.10555	0.094190308	0.011359692
593.36	0.09873	0.094190308	0.004539692
593.4	0.09618	0.094190309	0.001989691
593.44	0.10367	0.094190309	0.009479691
593.48	0.09679	0.09419031	0.00259969
593.52	0.09878	0.09419031	0.00458969
593.56	0.10066	0.094190311	0.006469689
593.6	0.09797	0.094190311	0.003779689
593.64	0.09761	0.094190311	0.003419689
593.68	0.09802	0.094190312	0.003829688
593.72	0.10107	0.094190312	0.006879688
593.76	0.09705	0.094190313	0.002859687
593.8	0.10367	0.094190313	0.009479687
593.84	0.10183	0.094190314	0.007639686
593.88	0.10173	0.094190314	0.007539686
593.92	0.10183	0.094190314	0.007639686
593.96	0.10362	0.094190315	0.009429685
594	0.1027	0.094190315	0.008509685
594.04	0.09995	0.094190316	0.005759684
594.08	0.09965	0.094190316	0.005459684
594.12	0.1027	0.094190317	0.008509683
594.16	0.0997	0.094190317	0.005509683
594.2	0.10015	0.094190317	0.005959683
594.24	0.0973	0.094190318	0.003109682
594.28	0.09878	0.094190318	0.004589682
594.32	0.09741	0.094190319	0.003219681
594.36	0.10092	0.094190319	0.006729681
594.4	0.09791	0.09419032	0.00371968
594.44	0.10082	0.09419032	0.00662968
594.48	0.09496	0.09419032	0.00076968
594.52	0.09522	0.094190321	0.001029679
594.56	0.09522	0.094190321	0.001029679
594.6	0.09695	0.094190322	0.002759678
594.64	0.09542	0.094190322	0.001229678
594.68	0.08967	0.094190323	-0.004520323
594.72	0.0913	0.094190323	-0.002890323
594.76	0.09802	0.094190323	0.003829677
594.8	0.09797	0.094190324	0.003779676
594.84	0.09639	0.094190324	0.002199676
594.88	0.09425	0.094190325	5.96754E-05
594.92	0.09145	0.094190325	-0.002740325
594.96	0.0971	0.094190325	0.002909675
595	0.09298	0.094190326	-0.001210326
595.04	0.09231	0.094190326	-0.001880326
595.08	0.09242	0.094190327	-0.001770327
595.12	0.0914	0.094190327	-0.002790327
595.16	0.09242	0.094190328	-0.001770328
595.2	0.09903	0.094190328	0.004839672
595.24	0.09415	0.094190328	-4.03285E-05
595.28	0.09914	0.094190329	0.004949671
595.32	0.09527	0.094190329	0.001079671
595.36	0.09985	0.09419033	0.00565967
595.4	0.09975	0.09419033	0.00555967
595.44	0.09822	0.094190331	0.004029669
595.48	0.09496	0.094190331	0.000769669
595.52	0.10448	0.094190331	0.010289669
595.56	0.09888	0.094190332	0.004689668
595.6	0.0999	0.094190332	0.005709668
595.64	0.10005	0.094190333	0.005859667
595.68	0.10015	0.094190333	0.005959667
595.72	0.10285	0.094190334	0.008659666
595.76	0.1056	0.094190334	0.011409666
595.8	0.1056	0.094190334	0.011409666
595.84	0.10285	0.094190335	0.008659665
595.88	0.10295	0.094190335	0.008759665
595.92	0.10168	0.094190336	0.007489664
595.96	0.10392	0.094190336	0.009729664
596	0.10362	0.094190337	0.009429663
596.04	0.10906	0.094190337	0.014869663
596.08	0.1111	0.094190337	0.016909663
596.12	0.10637	0.094190338	0.012179662
596.16	0.11227	0.094190338	0.018079662
596.2	0.10555	0.094190339	0.011359661
596.24	0.10744	0.094190339	0.013249661
596.28	0.10738	0.09419034	0.01318966
596.32	0.1113	0.09419034	0.01710966
596.36	0.11487	0.09419034	0.02067966
596.4	0.11115	0.094190341	0.016959659
596.44	0.11772	0.094190341	0.023529659
596.48	0.11125	0.094190342	0.017059658
596.52	0.11971	0.094190342	0.025519658
596.56	0.11981	0.094190343	0.025619657
596.6	0.11482	0.094190343	0.020629657
596.64	0.12373	0.094190343	0.029539657
596.68	0.12139	0.094190344	0.027199656
596.72	0.11202	0.094190344	0.017829656
596.76	0.11411	0.094190345	0.019919655
596.8	0.11879	0.094190345	0.024599655
596.84	0.12037	0.094190345	0.026179655
596.88	0.12077	0.094190346	0.026579654
596.92	0.12536	0.094190346	0.031169654
596.96	0.12159	0.094190347	0.027399653
597	0.12169	0.094190347	0.027499653
597.04	0.12923	0.094190348	0.035039652
597.08	0.12052	0.094190348	0.026329652
597.12	0.1251	0.094190348	0.030909652
597.16	0.1252	0.094190349	0.031009651
597.2	0.11772	0.094190349	0.023529651
597.24	0.11853	0.09419035	0.02433965
597.28	0.12159	0.09419035	0.02739965
597.32	0.12444	0.094190351	0.030249649
597.36	0.11787	0.094190351	0.023679649
597.4	0.12256	0.094190351	0.028369649
597.44	0.12256	0.094190352	0.028369648
597.48	0.11696	0.094190352	0.022769648
597.52	0.11869	0.094190353	0.024499647
597.56	0.10912	0.094190353	0.014929647
597.6	0.11298	0.094190354	0.018789646
597.64	0.11599	0.094190354	0.021799646
597.68	0.11405	0.094190354	0.019859646
597.72	0.10957	0.094190355	0.015379645
597.76	0.10901	0.094190355	0.014819645
597.8	0.11405	0.094190356	0.019859644
597.84	0.1168	0.094190356	0.022609644
597.88	0.11202	0.094190357	0.017829643
597.92	0.11319	0.094190357	0.018999643
597.96	0.11421	0.094190357	0.020019643
598	0.11054	0.094190358	0.016349642
598.04	0.11039	0.094190358	0.016199642
598.08	0.10718	0.094190359	0.012989641
598.12	0.10912	0.094190359	0.014929641
598.16	0.10662	0.09419036	0.01242964
598.2	0.11298	0.09419036	0.01878964
598.24	0.11395	0.09419036	0.01975964
598.28	0.11767	0.094190361	0.023479639
598.32	0.11298	0.094190361	0.018789639
598.36	0.11304	0.094190362	0.018849638
598.4	0.11212	0.094190362	0.017929638
598.44	0.11848	0.094190362	0.024289638
598.48	0.11665	0.094190363	0.022459637
598.52	0.11309	0.094190363	0.018899637
598.56	0.11288	0.094190364	0.018689636
598.6	0.12373	0.094190364	0.029539636
598.64	0.12332	0.094190365	0.029129635
598.68	0.11024	0.094190365	0.016049635
598.72	0.1136	0.094190365	0.019409635
598.76	0.11008	0.094190366	0.015889634
598.8	0.11421	0.094190366	0.020019634
598.84	0.11589	0.094190367	0.021699633
598.88	0.10738	0.094190367	0.013189633
598.92	0.10759	0.094190368	0.013399632
598.96	0.11222	0.094190368	0.018029632
599	0.111	0.094190368	0.016809632
599.04	0.1054	0.094190369	0.011209631
599.08	0.1055	0.094190369	0.011309631
599.12	0.1028	0.09419037	0.00860963
599.16	0.10835	0.09419037	0.01415963
599.2	0.10183	0.094190371	0.007639629
599.24	0.10158	0.094190371	0.007389629
599.28	0.10265	0.094190371	0.008459629
599.32	0.10178	0.094190372	0.007589628
599.36	0.10387	0.094190372	0.009679628
599.4	0.10362	0.094190373	0.009429627
599.44	0.10285	0.094190373	0.008659627
599.48	0.10026	0.094190374	0.006069626
599.52	0.09995	0.094190374	0.005759626
599.56	0.09822	0.094190374	0.004029626
599.6	0.09837	0.094190375	0.004179625
599.64	0.10189	0.094190375	0.007699625
599.68	0.09211	0.094190376	-0.002080376
599.72	0.10087	0.094190376	0.006679624
599.76	0.0971	0.094190377	0.002909623
599.8	0.0971	0.094190377	0.002909623
599.84	0.09725	0.094190377	0.003059623
599.88	0.09511	0.094190378	0.000919622
599.92	0.09527	0.094190378	0.001079622
599.96	0.09542	0.094190379	0.001229621
600	0.10005	0.094190379	0.005859621
600.04	0.09695	0.09419038	0.00275962
600.08	0.09924	0.09419038	0.00504962
600.12	0.09909	0.09419038	0.00489962
600.16	0.09797	0.094190381	0.003779619
600.2	0.097	0.094190381	0.002809619
600.24	0.0969	0.094190382	0.002709618
600.28	0.10275	0.094190382	0.008559618
600.32	0.09812	0.094190382	0.003929618
600.36	0.10189	0.094190383	0.007699617
600.4	0.10173	0.094190383	0.007539617
600.44	0.09338	0.094190384	-0.000810384
600.48	0.09532	0.094190384	0.001129616
600.52	0.09909	0.094190385	0.004899615
600.56	0.09715	0.094190385	0.002959615
600.6	0.09068	0.094190385	-0.003510385
600.64	0.09618	0.094190386	0.001989614
600.68	0.0915	0.094190386	-0.002690386
600.72	0.09155	0.094190387	-0.002640387
600.76	0.09145	0.094190387	-0.002740387
600.8	0.09135	0.094190388	-0.002840388
600.84	0.09303	0.094190388	-0.001160388
600.88	0.0915	0.094190388	-0.002690388
600.92	0.09313	0.094190389	-0.001060389
600.96	0.0944	0.094190389	0.000209611
601	0.09399	0.09419039	-0.00020039
601.04	0.09522	0.09419039	0.00102961
601.08	0.08758	0.094190391	-0.006610391
601.12	0.08946	0.094190391	-0.004730391
601.16	0.09231	0.094190391	-0.001880391
601.2	0.09221	0.094190392	-0.001980392
601.24	0.09145	0.094190392	-0.002740392
601.28	0.0914	0.094190393	-0.002790393
601.32	0.09303	0.094190393	-0.001160393
601.36	0.08834	0.094190394	-0.005850394
601.4	0.09797	0.094190394	0.003779606
601.44	0.09211	0.094190394	-0.002080394
601.48	0.09303	0.094190395	-0.001160395
601.52	0.09231	0.094190395	-0.001880395
601.56	0.0913	0.094190396	-0.002890396
601.6	0.09135	0.094190396	-0.002840396
601.64	0.09313	0.094190397	-0.001060397
601.68	0.09313	0.094190397	-0.001060397
601.72	0.09608	0.094190397	0.001889603
601.76	0.09797	0.094190398	0.003779602
601.8	0.09033	0.094190398	-0.003860398
601.84	0.08839	0.094190399	-0.005800399
601.88	0.08839	0.094190399	-0.005800399
601.92	0.09074	0.094190399	-0.003450399
601.96	0.09613	0.0941904	0.0019396
602	0.0915	0.0941904	-0.0026904
602.04	0.0942	0.094190401	9.59923E-06
602.08	0.09165	0.094190401	-0.002540401
602.12	0.09802	0.094190402	0.003829598
602.16	0.09522	0.094190402	0.001029598
602.2	0.09517	0.094190402	0.000979598
602.24	0.09679	0.094190403	0.002599597
602.28	0.09298	0.094190403	-0.001210403
602.32	0.09532	0.094190404	0.001129596
602.36	0.0969	0.094190404	0.002709596
602.4	0.09517	0.094190405	0.000979595
602.44	0.09323	0.094190405	-0.000960405
602.48	0.09313	0.094190405	-0.001060405
602.52	0.09338	0.094190406	-0.000810406
602.56	0.09333	0.094190406	-0.000860406
602.6	0.0998	0.094190407	0.005609593
602.64	0.09435	0.094190407	0.000159593
602.68	0.09812	0.094190408	0.003929592
602.72	0.0943	0.094190408	0.000109592
602.76	0.09415	0.094190408	-4.04084E-05
602.8	0.09618	0.094190409	0.001989591
602.84	0.09598	0.094190409	0.001789591
602.88	0.09608	0.09419041	0.00188959
602.92	0.09603	0.09419041	0.00183959
602.96	0.09313	0.094190411	-0.001060411
603	0.09603	0.094190411	0.001839589
603.04	0.10341	0.094190411	0.009219589
603.08	0.10336	0.094190412	0.009169588
603.12	0.09985	0.094190412	0.005659588
603.16	0.09231	0.094190413	-0.001880413
603.2	0.09318	0.094190413	-0.001010413
603.24	0.09797	0.094190414	0.003779586
603.28	0.09715	0.094190414	0.002959586
603.32	0.09308	0.094190414	-0.001110414
603.36	0.09298	0.094190415	-0.001210415
603.4	0.09511	0.094190415	0.000919585
603.44	0.09338	0.094190416	-0.000810416
603.48	0.09725	0.094190416	0.003059584
603.52	0.09328	0.094190417	-0.000910417
603.56	0.09557	0.094190417	0.001379583
603.6	0.10092	0.094190417	0.006729583
603.64	0.10056	0.094190418	0.006369582
603.68	0.09725	0.094190418	0.003059582
603.72	0.09685	0.094190419	0.002659581
603.76	0.10178	0.094190419	0.007589581
603.8	0.09527	0.094190419	0.001079581
603.84	0.09511	0.09419042	0.00091958
603.88	0.09786	0.09419042	0.00366958
603.92	0.09405	0.094190421	-0.000140421
603.96	0.09445	0.094190421	0.000259579
604	0.10071	0.094190422	0.006519578
604.04	0.09236	0.094190422	-0.001830422
604.08	0.09695	0.094190422	0.002759578
604.12	0.1001	0.094190423	0.005909577
604.16	0.09898	0.094190423	0.004789577
604.2	0.10173	0.094190424	0.007539576
604.24	0.10194	0.094190424	0.007749576
604.28	0.10087	0.094190425	0.006679575
604.32	0.10453	0.094190425	0.010339575
604.36	0.0998	0.094190425	0.005609575
604.4	0.10071	0.094190426	0.006519574
604.44	0.09909	0.094190426	0.004899574
604.48	0.1027	0.094190427	0.008509573
604.52	0.09914	0.094190427	0.004949573
604.56	0.09903	0.094190428	0.004839572
604.6	0.10474	0.094190428	0.010549572
604.64	0.10102	0.094190428	0.006829572
604.68	0.0943	0.094190429	0.000109571
604.72	0.09506	0.094190429	0.000869571
604.76	0.10189	0.09419043	0.00769957
604.8	0.10071	0.09419043	0.00651957
604.84	0.10097	0.094190431	0.006779569
604.88	0.0942	0.094190431	9.56904E-06
604.92	0.09165	0.094190431	-0.002540431
604.96	0.09781	0.094190432	0.003619568
605	0.10082	0.094190432	0.006629568
605.04	0.0942	0.094190433	9.56734E-06
605.08	0.09893	0.094190433	0.004739567
605.12	0.09909	0.094190434	0.004899566
605.16	0.09445	0.094190434	0.000259566
605.2	0.09995	0.094190434	0.005759566
605.24	0.09522	0.094190435	0.001029565
605.28	0.09883	0.094190435	0.004639565
605.32	0.09532	0.094190436	0.001129564
605.36	0.09898	0.094190436	0.004789564
605.4	0.09343	0.094190436	-0.000760436
605.44	0.09338	0.094190437	-0.000810437
605.48	0.09608	0.094190437	0.001889563
605.52	0.09501	0.094190438	0.000819562
605.56	0.09511	0.094190438	0.000919562
605.6	0.08946	0.094190439	-0.004730439
605.64	0.09817	0.094190439	0.003979561
605.68	0.09511	0.094190439	0.000919561
605.72	0.09517	0.09419044	0.00097956
605.76	0.09226	0.09419044	-0.00193044
605.8	0.09023	0.094190441	-0.003960441
605.84	0.08844	0.094190441	-0.005750441
605.88	0.09038	0.094190442	-0.003810442
605.92	0.08946	0.094190442	-0.004730442
605.96	0.09328	0.094190442	-0.000910442
606	0.09328	0.094190443	-0.000910443
606.04	0.09598	0.094190443	0.001789557
606.08	0.09807	0.094190444	0.003879556
606.12	0.09236	0.094190444	-0.001830444
606.16	0.09613	0.094190445	0.001939555
606.2	0.0943	0.094190445	0.000109555
606.24	0.09618	0.094190445	0.001989555
606.28	0.09537	0.094190446	0.001179554
606.32	0.09506	0.094190446	0.000869554
606.36	0.0943	0.094190447	0.000109553
606.4	0.0972	0.094190447	0.003009553
606.44	0.09807	0.094190448	0.003879552
606.48	0.09598	0.094190448	0.001789552
606.52	0.0973	0.094190448	0.003109552
606.56	0.10087	0.094190449	0.006679551
606.6	0.10097	0.094190449	0.006779551
606.64	0.09593	0.09419045	0.00173955
606.68	0.09914	0.09419045	0.00494955
606.72	0.09807	0.094190451	0.003879549
606.76	0.1001	0.094190451	0.005909549
606.8	0.10245	0.094190451	0.008259549
606.84	0.10667	0.094190452	0.012479548
606.88	0.10626	0.094190452	0.012069548
606.92	0.10672	0.094190453	0.012529547
606.96	0.0973	0.094190453	0.003109547
607	0.10285	0.094190454	0.008659546
607.04	0.10744	0.094190454	0.013249546
607.08	0.10637	0.094190454	0.012179546
607.12	0.10565	0.094190455	0.011459545
607.16	0.10642	0.094190455	0.012229545
607.2	0.10632	0.094190456	0.012129544
607.24	0.10912	0.094190456	0.014929544
607.28	0.11971	0.094190456	0.025519544
607.32	0.11512	0.094190457	0.020929543
607.36	0.11528	0.094190457	0.021089543
607.4	0.12368	0.094190458	0.029489542
607.44	0.1168	0.094190458	0.022609542
607.48	0.11696	0.094190459	0.022769541
607.52	0.11594	0.094190459	0.021749541
607.56	0.1167	0.094190459	0.022509541
607.6	0.11986	0.09419046	0.02566954
607.64	0.11772	0.09419046	0.02352954
607.68	0.11573	0.094190461	0.021539539
607.72	0.11971	0.094190461	0.025519539
607.76	0.11696	0.094190462	0.022769538
607.8	0.11701	0.094190462	0.022819538
607.84	0.11675	0.094190462	0.022559538
607.88	0.12653	0.094190463	0.032339537
607.92	0.11497	0.094190463	0.020779537
607.96	0.11594	0.094190464	0.021749536
608	0.11288	0.094190464	0.018689536
608.04	0.11293	0.094190465	0.018739535
608.08	0.11329	0.094190465	0.019099535
608.12	0.11202	0.094190465	0.017829535
608.16	0.11242	0.094190466	0.018229534
608.2	0.10927	0.094190466	0.015079534
608.24	0.10759	0.094190467	0.013399533
608.28	0.111	0.094190467	0.016809533
608.32	0.10484	0.094190468	0.010649532
608.36	0.10469	0.094190468	0.010499532
608.4	0.10372	0.094190468	0.009529532
608.44	0.10189	0.094190469	0.007699531
608.48	0.10357	0.094190469	0.009379531
608.52	0.0999	0.09419047	0.00570953
608.56	0.09807	0.09419047	0.00387953
608.6	0.10194	0.094190471	0.007749529
608.64	0.09995	0.094190471	0.005759529
608.68	0.10021	0.094190471	0.006019529
608.72	0.09445	0.094190472	0.000259528
608.76	0.09802	0.094190472	0.003829528
608.8	0.1	0.094190473	0.005809527
608.84	0.09425	0.094190473	5.95269E-05
608.88	0.09695	0.094190473	0.002759527
608.92	0.10082	0.094190474	0.006629526
608.96	0.10087	0.094190474	0.006679526
609	0.09909	0.094190475	0.004899525
609.04	0.09715	0.094190475	0.002959525
609.08	0.09517	0.094190476	0.000979524
609.12	0.10504	0.094190476	0.010849524
609.16	0.10178	0.094190476	0.007589524
609.2	0.0999	0.094190477	0.005709523
609.24	0.09629	0.094190477	0.002099523
609.28	0.09618	0.094190478	0.001989522
609.32	0.09802	0.094190478	0.003829522
609.36	0.09623	0.094190479	0.002039521
609.4	0.10097	0.094190479	0.006779521
609.44	0.09812	0.094190479	0.003929521
609.48	0.09903	0.09419048	0.00483952
609.52	0.09216	0.09419048	-0.00203048
609.56	0.09236	0.094190481	-0.001830481
609.6	0.09802	0.094190481	0.003829519
609.64	0.09776	0.094190482	0.003569518
609.68	0.09898	0.094190482	0.004789518
609.72	0.10204	0.094190482	0.007849518
609.76	0.09598	0.094190483	0.001789517
609.8	0.09501	0.094190483	0.000819517
609.84	0.09532	0.094190484	0.001129516
609.88	0.09618	0.094190484	0.001989516
609.92	0.09878	0.094190485	0.004589515
609.96	0.09608	0.094190485	0.001889515
610	0.09618	0.094190485	0.001989515
610.04	0.09313	0.094190486	-0.001060486
610.08	0.09623	0.094190486	0.002039514
610.12	0.08773	0.094190487	-0.006460487
610.16	0.08763	0.094190487	-0.006560487
610.2	0.09145	0.094190488	-0.002740488
610.24	0.09226	0.094190488	-0.001930488
610.28	0.09135	0.094190488	-0.002840488
610.32	0.09236	0.094190489	-0.001830489
610.36	0.0943	0.094190489	0.000109511
610.4	0.09715	0.09419049	0.00295951
610.44	0.097	0.09419049	0.00280951
610.48	0.09542	0.094190491	0.001229509
610.52	0.09674	0.094190491	0.002549509
610.56	0.09603	0.094190491	0.001839509
610.6	0.09695	0.094190492	0.002759508
610.64	0.0969	0.094190492	0.002709508
610.68	0.10061	0.094190493	0.006419507
610.72	0.09588	0.094190493	0.001689507
610.76	0.09608	0.094190493	0.001889507
610.8	0.10204	0.094190494	0.007849506
610.84	0.09786	0.094190494	0.003669506
610.88	0.10362	0.094190495	0.009429505
610.92	0.10835	0.094190495	0.014159505
610.96	0.10204	0.094190496	0.007849504
611	0.1054	0.094190496	0.011209504
611.04	0.10565	0.094190496	0.011459504
611.08	0.09715	0.094190497	0.002959503
611.12	0.10285	0.094190497	0.008659503
611.16	0.10051	0.094190498	0.006319502
611.2	0.10453	0.094190498	0.010339502
611.24	0.10061	0.094190499	0.006419501
611.28	0.10387	0.094190499	0.009679501
611.32	0.10382	0.094190499	0.009629501
611.36	0.10265	0.0941905	0.0084595
611.4	0.10565	0.0941905	0.0114595
611.44	0.10458	0.094190501	0.010389499
611.48	0.10469	0.094190501	0.010499499
611.52	0.10372	0.094190502	0.009529498
611.56	0.10382	0.094190502	0.009629498
611.6	0.1054	0.094190502	0.011209498
611.64	0.10555	0.094190503	0.011359497
611.68	0.11298	0.094190503	0.018789497
611.72	0.10749	0.094190504	0.013299496
611.76	0.10525	0.094190504	0.011059496
611.8	0.10484	0.094190505	0.010649495
611.84	0.10087	0.094190505	0.006679495
611.88	0.10362	0.094190505	0.009429495
611.92	0.10382	0.094190506	0.009629494
611.96	0.09909	0.094190506	0.004899494
612	0.09425	0.094190507	5.94933E-05
612.04	0.09985	0.094190507	0.005659493
612.08	0.10346	0.094190508	0.009269492
612.12	0.10275	0.094190508	0.008559492
612.16	0.09883	0.094190508	0.004639492
612.2	0.09903	0.094190509	0.004839491
612.24	0.09878	0.094190509	0.004589491
612.28	0.10469	0.09419051	0.01049949
612.32	0.1001	0.09419051	0.00590949
612.36	0.09313	0.09419051	-0.00106051
612.4	0.09613	0.094190511	0.001939489
612.44	0.09822	0.094190511	0.004029489
612.48	0.09068	0.094190512	-0.003510512
612.52	0.09043	0.094190512	-0.003760512
612.56	0.08911	0.094190513	-0.005080513
612.6	0.09308	0.094190513	-0.001110513
612.64	0.09389	0.094190513	-0.000300513
612.68	0.09623	0.094190514	0.002039486
612.72	0.09965	0.094190514	0.005459486
612.76	0.09598	0.094190515	0.001789485
612.8	0.09588	0.094190515	0.001689485
612.84	0.09435	0.094190516	0.000159484
612.88	0.09812	0.094190516	0.003929484
612.92	0.09735	0.094190516	0.003159484
612.96	0.09995	0.094190517	0.005759483
613	0.0915	0.094190517	-0.002690517
613.04	0.09608	0.094190518	0.001889482
613.08	0.0942	0.094190518	9.48186E-06
613.12	0.0942	0.094190519	9.48143E-06
613.16	0.09705	0.094190519	0.002859481
613.2	0.09135	0.094190519	-0.002840519
613.24	0.09506	0.09419052	0.00086948
613.28	0.09593	0.09419052	0.00173948
613.32	0.09802	0.094190521	0.003829479
613.36	0.09231	0.094190521	-0.001880521
613.4	0.09211	0.094190522	-0.002080522
613.44	0.10061	0.094190522	0.006419478
613.48	0.09186	0.094190522	-0.002330522
613.52	0.09338	0.094190523	-0.000810523
613.56	0.09883	0.094190523	0.004639477
613.6	0.09425	0.094190524	5.94763E-05
613.64	0.09975	0.094190524	0.005559476
613.68	0.09975	0.094190525	0.005559475
613.72	0.10092	0.094190525	0.006729475
613.76	0.09685	0.094190525	0.002659475
613.8	0.09893	0.094190526	0.004739474
613.84	0.09623	0.094190526	0.002039474
613.88	0.09328	0.094190527	-0.000910527
613.92	0.0917	0.094190527	-0.002490527
613.96	0.10178	0.094190527	0.007589473
614	0.10189	0.094190528	0.007699472
614.04	0.09425	0.094190528	5.94716E-05
614.08	0.09221	0.094190529	-0.001980529
614.12	0.09664	0.094190529	0.002449471
614.16	0.09817	0.09419053	0.00397947
614.2	0.09593	0.09419053	0.00173947
614.24	0.09909	0.09419053	0.00489947
614.28	0.09914	0.094190531	0.004949469
614.32	0.09226	0.094190531	-0.001930531
614.36	0.0973	0.094190532	0.003109468
614.4	0.0973	0.094190532	0.003109468
614.44	0.09338	0.094190533	-0.000810533
614.48	0.10443	0.094190533	0.010239467
614.52	0.09506	0.094190533	0.000869467
614.56	0.09552	0.094190534	0.001329466
614.6	0.10005	0.094190534	0.005859466
614.64	0.1028	0.094190535	0.008609465
614.68	0.09603	0.094190535	0.001839465
614.72	0.09506	0.094190536	0.000869464
614.76	0.09797	0.094190536	0.003779464
614.8	0.09695	0.094190536	0.002759464
614.84	0.09338	0.094190537	-0.000810537
614.88	0.09333	0.094190537	-0.000860537
614.92	0.09501	0.094190538	0.000819462
614.96	0.09537	0.094190538	0.001179462
615	0.09522	0.094190539	0.001029461
615.04	0.09802	0.094190539	0.003829461
615.08	0.09343	0.094190539	-0.000760539
615.12	0.09114	0.09419054	-0.00305054
615.16	0.0914	0.09419054	-0.00279054
615.2	0.09603	0.094190541	0.001839459
615.24	0.09517	0.094190541	0.000979459
615.28	0.09613	0.094190542	0.001939458
615.32	0.09216	0.094190542	-0.002030542
615.36	0.09063	0.094190542	-0.003560542
615.4	0.09909	0.094190543	0.004899457
615.44	0.0971	0.094190543	0.002909457
615.48	0.0971	0.094190544	0.002909456
615.52	0.0942	0.094190544	9.45591E-06
615.56	0.09629	0.094190545	0.002099455
615.6	0.09313	0.094190545	-0.001060545
615.64	0.09425	0.094190545	5.94546E-05
615.68	0.09247	0.094190546	-0.001720546
615.72	0.09226	0.094190546	-0.001930546
615.76	0.09242	0.094190547	-0.001770547
615.8	0.09695	0.094190547	0.002759453
615.84	0.08941	0.094190547	-0.004780547
615.88	0.09522	0.094190548	0.001029452
615.92	0.0973	0.094190548	0.003109452
615.96	0.09338	0.094190549	-0.000810549
616	0.09522	0.094190549	0.001029451
616.04	0.09527	0.09419055	0.00107945
616.08	0.09435	0.09419055	0.00015945
616.12	0.09435	0.09419055	0.00015945
616.16	0.09812	0.094190551	0.003929449
616.2	0.09216	0.094190551	-0.002030551
616.24	0.10066	0.094190552	0.006469448
616.28	0.10071	0.094190552	0.006519448
616.32	0.09629	0.094190553	0.002099447
616.36	0.09613	0.094190553	0.001939447
616.4	0.09959	0.094190553	0.005399447
616.44	0.09511	0.094190554	0.000919446
616.48	0.0914	0.094190554	-0.002790554
616.52	0.09333	0.094190555	-0.000860555
616.56	0.09629	0.094190555	0.002099445
616.6	0.08768	0.094190556	-0.006510556
616.64	0.08748	0.094190556	-0.006710556
616.68	0.09868	0.094190556	0.004489444
616.72	0.09634	0.094190557	0.002149443
616.76	0.10367	0.094190557	0.009479443
616.8	0.09802	0.094190558	0.003829442
616.84	0.09898	0.094190558	0.004789442
616.88	0.10199	0.094190559	0.007799441
616.92	0.10143	0.094190559	0.007239441
616.96	0.09634	0.094190559	0.002149441
617	0.09802	0.09419056	0.00382944
617.04	0.09822	0.09419056	0.00402944
617.08	0.0914	0.094190561	-0.002790561
617.12	0.09812	0.094190561	0.003929439
617.16	0.10087	0.094190562	0.006679438
617.2	0.10453	0.094190562	0.010339438
617.24	0.10453	0.094190562	0.010339438
617.28	0.10372	0.094190563	0.009529437
617.32	0.1053	0.094190563	0.011109437
617.36	0.10382	0.094190564	0.009629436
617.4	0.10998	0.094190564	0.015789436
617.44	0.10183	0.094190564	0.007639436
617.48	0.10637	0.094190565	0.012179435
617.52	0.10626	0.094190565	0.012069435
617.56	0.10555	0.094190566	0.011359434
617.6	0.11976	0.094190566	0.025569434
617.64	0.12072	0.094190567	0.026529433
617.68	0.12638	0.094190567	0.032189433
617.72	0.1196	0.094190567	0.025409433
617.76	0.12785	0.094190568	0.033659432
617.8	0.12526	0.094190568	0.031069432
617.84	0.12541	0.094190569	0.031219431
617.88	0.13101	0.094190569	0.036819431
617.92	0.13854	0.09419057	0.04434943
617.96	0.14598	0.09419057	0.05178943
618	0.14119	0.09419057	0.04699943
618.04	0.13666	0.094190571	0.042469429
618.08	0.15652	0.094190571	0.062329429
618.12	0.15652	0.094190572	0.062329428
618.16	0.15479	0.094190572	0.060599428
618.2	0.16054	0.094190573	0.066349427
618.24	0.16415	0.094190573	0.069959427
618.28	0.16191	0.094190573	0.067719427
618.32	0.16135	0.094190574	0.067159426
618.36	0.15682	0.094190574	0.062629426
618.4	0.15626	0.094190575	0.062069425
618.44	0.15555	0.094190575	0.061359425
618.48	0.15937	0.094190576	0.065179424
618.52	0.16986	0.094190576	0.075669424
618.56	0.16517	0.094190576	0.070979424
618.6	0.1641	0.094190577	0.069909423
618.64	0.16212	0.094190577	0.067929423
618.68	0.1642	0.094190578	0.070009422
618.72	0.16405	0.094190578	0.069859422
618.76	0.15555	0.094190579	0.061359421
618.8	0.14812	0.094190579	0.053929421
618.84	0.14603	0.094190579	0.051839421
618.88	0.13778	0.09419058	0.04358942
618.92	0.14414	0.09419058	0.04994942
618.96	0.13305	0.094190581	0.038859419
619	0.13289	0.094190581	0.038699419
619.04	0.13106	0.094190582	0.036869418
619.08	0.13035	0.094190582	0.036159418
619.12	0.12867	0.094190582	0.034479418
619.16	0.11884	0.094190583	0.024649417
619.2	0.1111	0.094190583	0.016909417
619.24	0.10927	0.094190584	0.015079416
619.28	0.0998	0.094190584	0.005609416
619.32	0.09985	0.094190584	0.005659416
619.36	0.10555	0.094190585	0.011359415
619.4	0.1028	0.094190585	0.008609415
619.44	0.10362	0.094190586	0.009429414
619.48	0.09608	0.094190586	0.001889414
619.52	0.09995	0.094190587	0.005759413
619.56	0.09629	0.094190587	0.002099413
619.6	0.09639	0.094190587	0.002199413
619.64	0.10087	0.094190588	0.006679412
619.68	0.09618	0.094190588	0.001989412
619.72	0.09679	0.094190589	0.002599411
619.76	0.10749	0.094190589	0.013299411
619.8	0.09491	0.09419059	0.00071941
619.84	0.10092	0.09419059	0.00672941
619.88	0.10087	0.09419059	0.00667941
619.92	0.10005	0.094190591	0.005859409
619.96	0.09608	0.094190591	0.001889409
620	0.10173	0.094190592	0.007539408
620.04	0.1029	0.094190592	0.008709408
620.08	0.097	0.094190593	0.002809407
620.12	0.09791	0.094190593	0.003719407
620.16	0.09909	0.094190593	0.004899407
620.2	0.09878	0.094190594	0.004589406
620.24	0.1055	0.094190594	0.011309406
620.28	0.10438	0.094190595	0.010189405
620.32	0.10173	0.094190595	0.007539405
620.36	0.10158	0.094190596	0.007389404
620.4	0.0999	0.094190596	0.005709404
620.44	0.1056	0.094190596	0.011409404
620.48	0.10509	0.094190597	0.010899403
620.52	0.1	0.094190597	0.005809403
620.56	0.10209	0.094190598	0.007899402
620.6	0.10112	0.094190598	0.006929402
620.64	0.10362	0.094190599	0.009429401
620.68	0.10576	0.094190599	0.011569401
620.72	0.10097	0.094190599	0.006779401
620.76	0.10077	0.0941906	0.0065794
620.8	0.1056	0.0941906	0.0114094
620.84	0.10372	0.094190601	0.009529399
620.88	0.0999	0.094190601	0.005709399
620.92	0.10153	0.094190601	0.007339399
620.96	0.10535	0.094190602	0.011159398
621	0.11029	0.094190602	0.016099398
621.04	0.11298	0.094190603	0.018789397
621.08	0.11319	0.094190603	0.018999397
621.12	0.11064	0.094190604	0.016449396
621.16	0.10856	0.094190604	0.014369396
621.2	0.10922	0.094190604	0.015029396
621.24	0.10194	0.094190605	0.007749395
621.28	0.11029	0.094190605	0.016099395
621.32	0.11008	0.094190606	0.015889394
621.36	0.11003	0.094190606	0.015839394
621.4	0.11024	0.094190607	0.016049393
621.44	0.11008	0.094190607	0.015889393
621.48	0.11482	0.094190607	0.020629393
621.52	0.12133	0.094190608	0.027139392
621.56	0.11965	0.094190608	0.025459392
621.6	0.12083	0.094190609	0.026639391
621.64	0.1192	0.094190609	0.025009391
621.68	0.11853	0.09419061	0.02433939
621.72	0.11869	0.09419061	0.02449939
621.76	0.12744	0.09419061	0.03324939
621.8	0.11879	0.094190611	0.024599389
621.84	0.12149	0.094190611	0.027299389
621.88	0.13269	0.094190612	0.038499388
621.92	0.13493	0.094190612	0.040739388
621.96	0.13478	0.094190613	0.040589387
622	0.14348	0.094190613	0.049289387
622.04	0.13753	0.094190613	0.043339387
622.08	0.15102	0.094190614	0.056829386
622.12	0.15188	0.094190614	0.057689386
622.16	0.15367	0.094190615	0.059479385
622.2	0.15952	0.094190615	0.065329385
622.24	0.15952	0.094190616	0.065329384
622.28	0.15647	0.094190616	0.062279384
622.32	0.15662	0.094190616	0.062429384
622.36	0.1583	0.094190617	0.064109383
622.4	0.16314	0.094190617	0.068949383
622.44	0.1527	0.094190618	0.058509382
622.48	0.1638	0.094190618	0.069609382
622.52	0.15937	0.094190619	0.065179381
622.56	0.15957	0.094190619	0.065379381
622.6	0.16578	0.094190619	0.071589381
622.64	0.16863	0.09419062	0.07443938
622.68	0.15193	0.09419062	0.05773938
622.72	0.14974	0.094190621	0.055549379
622.76	0.15224	0.094190621	0.058049379
622.8	0.147	0.094190621	0.052809379
622.84	0.14715	0.094190622	0.052959378
622.88	0.14328	0.094190622	0.049089378
622.92	0.14964	0.094190623	0.055449377
622.96	0.13763	0.094190623	0.043439377
623	0.13483	0.094190624	0.040639376
623.04	0.13116	0.094190624	0.036969376
623.08	0.12816	0.094190624	0.033969376
623.12	0.12816	0.094190625	0.033969375
623.16	0.12332	0.094190625	0.029129375
623.2	0.11212	0.094190626	0.017929374
623.24	0.11772	0.094190626	0.023529374
623.28	0.11405	0.094190627	0.019859373
623.32	0.11309	0.094190627	0.018899373
623.36	0.10962	0.094190627	0.015429373
623.4	0.11589	0.094190628	0.021699372
623.44	0.11599	0.094190628	0.021799372
623.48	0.10754	0.094190629	0.013349371
623.52	0.10275	0.094190629	0.008559371
623.56	0.10341	0.09419063	0.00921937
623.6	0.10453	0.09419063	0.01033937
623.64	0.10189	0.09419063	0.00769937
623.68	0.10102	0.094190631	0.006829369
623.72	0.10071	0.094190631	0.006519369
623.76	0.10071	0.094190632	0.006519368
623.8	0.09705	0.094190632	0.002859368
623.84	0.09807	0.094190633	0.003879367
623.88	0.10178	0.094190633	0.007589367
623.92	0.09878	0.094190633	0.004589367
623.96	0.10194	0.094190634	0.007749366
624	0.09812	0.094190634	0.003929366
624.04	0.09791	0.094190635	0.003719365
624.08	0.10082	0.094190635	0.006629365
624.12	0.1	0.094190636	0.005809364
624.16	0.10071	0.094190636	0.006519364
624.2	0.0999	0.094190636	0.005709364
624.24	0.09715	0.094190637	0.002959363
624.28	0.10377	0.094190637	0.009579363
624.32	0.10346	0.094190638	0.009269362
624.36	0.09995	0.094190638	0.005759362
624.4	0.09914	0.094190638	0.004949362
624.44	0.10173	0.094190639	0.007539361
624.48	0.10107	0.094190639	0.006879361
624.52	0.09517	0.09419064	0.00097936
624.56	0.0973	0.09419064	0.00310936
624.6	0.097	0.094190641	0.002809359
624.64	0.09909	0.094190641	0.004899359
624.68	0.09328	0.094190641	-0.000910641
624.72	0.09333	0.094190642	-0.000860642
624.76	0.09995	0.094190642	0.005759358
624.8	0.0972	0.094190643	0.003009357
624.84	0.09797	0.094190643	0.003779357
624.88	0.0969	0.094190644	0.002709356
624.92	0.0973	0.094190644	0.003109356
624.96	0.09517	0.094190644	0.000979356
625	0.10102	0.094190645	0.006829355
625.04	0.09135	0.094190645	-0.002840645
625.08	0.10005	0.094190646	0.005859354
625.12	0.09919	0.094190646	0.004999354
625.16	0.09898	0.094190647	0.004789353
625.2	0.09919	0.094190647	0.004999353
625.24	0.09893	0.094190647	0.004739353
625.28	0.09491	0.094190648	0.000719352
625.32	0.10097	0.094190648	0.006779352
625.36	0.097	0.094190649	0.002809351
625.4	0.09506	0.094190649	0.000869351
625.44	0.09883	0.09419065	0.00463935
625.48	0.09888	0.09419065	0.00468935
625.52	0.09802	0.09419065	0.00382935
625.56	0.09802	0.094190651	0.003829349
625.6	0.09623	0.094190651	0.002039349
625.64	0.0941	0.094190652	-9.06517E-05
625.68	0.09898	0.094190652	0.004789348
625.72	0.09257	0.094190653	-0.001620653
625.76	0.09211	0.094190653	-0.002080653
625.8	0.09206	0.094190653	-0.002130653
625.84	0.10092	0.094190654	0.006729346
625.88	0.0942	0.094190654	9.34577E-06
625.92	0.0972	0.094190655	0.003009345
625.96	0.09995	0.094190655	0.005759345
626	0.09603	0.094190656	0.001839344
626.04	0.09318	0.094190656	-0.001010656
626.08	0.09313	0.094190656	-0.001060656
626.12	0.09501	0.094190657	0.000819343
626.16	0.10372	0.094190657	0.009529343
626.2	0.09812	0.094190658	0.003929342
626.24	0.1001	0.094190658	0.005909342
626.28	0.09644	0.094190658	0.002249342
626.32	0.09776	0.094190659	0.003569341
626.36	0.09415	0.094190659	-4.06593E-05
626.4	0.09405	0.09419066	-0.00014066
626.44	0.09323	0.09419066	-0.00096066
626.48	0.09389	0.094190661	-0.000300661
626.52	0.10377	0.094190661	0.009579339
626.56	0.10168	0.094190661	0.007489339
626.6	0.0915	0.094190662	-0.002690662
626.64	0.10087	0.094190662	0.006679338
626.68	0.10087	0.094190663	0.006679337
626.72	0.09903	0.094190663	0.004839337
626.76	0.09705	0.094190664	0.002859336
626.8	0.09903	0.094190664	0.004839336
626.84	0.09939	0.094190664	0.005199336
626.88	0.09807	0.094190665	0.003879335
626.92	0.09995	0.094190665	0.005759335
626.96	0.1001	0.094190666	0.005909334
627	0.10183	0.094190666	0.007639334
627.04	0.10443	0.094190667	0.010239333
627.08	0.09924	0.094190667	0.005049333
627.12	0.09903	0.094190667	0.004839333
627.16	0.10178	0.094190668	0.007589332
627.2	0.10071	0.094190668	0.006519332
627.24	0.10097	0.094190669	0.006779331
627.28	0.10077	0.094190669	0.006579331
627.32	0.09812	0.09419067	0.00392933
627.36	0.10102	0.09419067	0.00682933
627.4	0.09919	0.09419067	0.00499933
627.44	0.09807	0.094190671	0.003879329
627.48	0.10637	0.094190671	0.012179329
627.52	0.10586	0.094190672	0.011669328
627.56	0.10545	0.094190672	0.011259328
627.6	0.10733	0.094190673	0.013139327
627.64	0.10581	0.094190673	0.011619327
627.68	0.10438	0.094190673	0.010189327
627.72	0.10657	0.094190674	0.012379326
627.76	0.1054	0.094190674	0.011209326
627.8	0.1084	0.094190675	0.014209325
627.84	0.10922	0.094190675	0.015029325
627.88	0.10922	0.094190675	0.015029325
627.92	0.10738	0.094190676	0.013189324
627.96	0.10825	0.094190676	0.014059324
628	0.1082	0.094190677	0.014009323
628.04	0.10565	0.094190677	0.011459323
628.08	0.11309	0.094190678	0.018899322
628.12	0.1083	0.094190678	0.014109322
628.16	0.10835	0.094190678	0.014159322
628.2	0.11589	0.094190679	0.021699321
628.24	0.1168	0.094190679	0.022609321
628.28	0.114	0.09419068	0.01980932
628.32	0.11416	0.09419068	0.01996932
628.36	0.12266	0.094190681	0.028469319
628.4	0.11594	0.094190681	0.021749319
628.44	0.11609	0.094190681	0.021899319
628.48	0.11696	0.094190682	0.022769318
628.52	0.1168	0.094190682	0.022609318
628.56	0.11981	0.094190683	0.025619317
628.6	0.11874	0.094190683	0.024549317
628.64	0.12363	0.094190684	0.029439316
628.68	0.12083	0.094190684	0.026639316
628.72	0.11273	0.094190684	0.018539316
628.76	0.11298	0.094190685	0.018789315
628.8	0.11492	0.094190685	0.020729315
628.84	0.11472	0.094190686	0.020529314
628.88	0.11018	0.094190686	0.015989314
628.92	0.11691	0.094190687	0.022719313
628.96	0.11507	0.094190687	0.020879313
629	0.11095	0.094190687	0.016759313
629.04	0.11105	0.094190688	0.016859312
629.08	0.11237	0.094190688	0.018179312
629.12	0.1111	0.094190689	0.016909311
629.16	0.11008	0.094190689	0.015889311
629.2	0.10224	0.09419069	0.00804931
629.24	0.11029	0.09419069	0.01609931
629.28	0.11115	0.09419069	0.01695931
629.32	0.1112	0.094190691	0.017009309
629.36	0.10367	0.094190691	0.009479309
629.4	0.09914	0.094190692	0.004949308
629.44	0.10362	0.094190692	0.009429308
629.48	0.10362	0.094190693	0.009429307
629.52	0.10066	0.094190693	0.006469307
629.56	0.09909	0.094190693	0.004899307
629.6	0.10077	0.094190694	0.006579306
629.64	0.10082	0.094190694	0.006629306
629.68	0.09511	0.094190695	0.000919305
629.72	0.09914	0.094190695	0.004949305
629.76	0.09562	0.094190695	0.001429305
629.8	0.09802	0.094190696	0.003829304
629.84	0.09058	0.094190696	-0.003610696
629.88	0.09135	0.094190697	-0.002840697
629.92	0.0914	0.094190697	-0.002790697
629.96	0.08819	0.094190698	-0.006000698
630	0.09629	0.094190698	0.002099302
630.04	0.0916	0.094190698	-0.002590698
630.08	0.09033	0.094190699	-0.003860699
630.12	0.0943	0.094190699	0.000109301
630.16	0.09298	0.0941907	-0.0012107
630.2	0.09552	0.0941907	0.0013293
630.24	0.09501	0.094190701	0.000819299
630.28	0.0916	0.094190701	-0.002590701
630.32	0.08778	0.094190701	-0.006410701
630.36	0.09242	0.094190702	-0.001770702
630.4	0.09425	0.094190702	5.92977E-05
630.44	0.09333	0.094190703	-0.000860703
630.48	0.09547	0.094190703	0.001279297
630.52	0.09527	0.094190704	0.001079296
630.56	0.09221	0.094190704	-0.001980704
630.6	0.09216	0.094190704	-0.002030704
630.64	0.08926	0.094190705	-0.004930705
630.68	0.09328	0.094190705	-0.000910705
630.72	0.09231	0.094190706	-0.001880706
630.76	0.09226	0.094190706	-0.001930706
630.8	0.09221	0.094190707	-0.001980707
630.84	0.09318	0.094190707	-0.001010707
630.88	0.09527	0.094190707	0.001079293
630.92	0.0914	0.094190708	-0.002790708
630.96	0.09527	0.094190708	0.001079292
631	0.09527	0.094190709	0.001079291
631.04	0.09705	0.094190709	0.002859291
631.08	0.08967	0.09419071	-0.00452071
631.12	0.08951	0.09419071	-0.00468071
631.16	0.0916	0.09419071	-0.00259071
631.2	0.09898	0.094190711	0.004789289
631.24	0.10173	0.094190711	0.007539289
631.28	0.10397	0.094190712	0.009779288
631.32	0.10632	0.094190712	0.012129288
631.36	0.11523	0.094190712	0.021039288
631.4	0.11502	0.094190713	0.020829287
631.44	0.12169	0.094190713	0.027499287
631.48	0.11884	0.094190714	0.024649286
631.52	0.12062	0.094190714	0.026429286
631.56	0.125	0.094190715	0.030809285
631.6	0.13574	0.094190715	0.041549285
631.64	0.13936	0.094190715	0.045169285
631.68	0.13946	0.094190716	0.045269284
631.72	0.14511	0.094190716	0.050919284
631.76	0.14226	0.094190717	0.048069283
631.8	0.14893	0.094190717	0.054739283
631.84	0.15341	0.094190718	0.059219282
631.88	0.15672	0.094190718	0.062529282
631.92	0.15662	0.094190718	0.062429282
631.96	0.1613	0.094190719	0.067109281
632	0.16125	0.094190719	0.067059281
632.04	0.16599	0.09419072	0.07179928
632.08	0.16695	0.09419072	0.07275928
632.12	0.164	0.094190721	0.069809279
632.16	0.17347	0.094190721	0.079279279
632.2	0.17429	0.094190721	0.080099279
632.24	0.18284	0.094190722	0.088649278
632.28	0.18258	0.094190722	0.088389278
632.32	0.1696	0.094190723	0.075409277
632.36	0.16772	0.094190723	0.073529277
632.4	0.16298	0.094190724	0.068789276
632.44	0.16487	0.094190724	0.070679276
632.48	0.16792	0.094190724	0.073729276
632.52	0.16802	0.094190725	0.073829275
632.56	0.16604	0.094190725	0.071849275
632.6	0.16604	0.094190726	0.071849274
632.64	0.16426	0.094190726	0.070069274
632.68	0.15718	0.094190727	0.062989273
632.72	0.15341	0.094190727	0.059219273
632.76	0.15652	0.094190727	0.062329273
632.8	0.15071	0.094190728	0.056519272
632.84	0.14053	0.094190728	0.046339272
632.88	0.14027	0.094190729	0.046079271
632.92	0.14109	0.094190729	0.046899271
632.96	0.13218	0.09419073	0.03798927
633	0.13508	0.09419073	0.04088927
633.04	0.13396	0.09419073	0.03976927
633.08	0.13305	0.094190731	0.038859269
633.12	0.11594	0.094190731	0.021749269
633.16	0.11594	0.094190732	0.021749268
633.2	0.12057	0.094190732	0.026379268
633.24	0.11869	0.094190732	0.024499268
633.28	0.12439	0.094190733	0.030199267
633.32	0.11971	0.094190733	0.025519267
633.36	0.11691	0.094190734	0.022719266
633.4	0.11008	0.094190734	0.015889266
633.44	0.11024	0.094190735	0.016049265
633.48	0.11018	0.094190735	0.015989265
633.52	0.10611	0.094190735	0.011919265
633.56	0.1054	0.094190736	0.011209264
633.6	0.1029	0.094190736	0.008709264
633.64	0.1001	0.094190737	0.005909263
633.68	0.09517	0.094190737	0.000979263
633.72	0.09323	0.094190738	-0.000960738
633.76	0.09328	0.094190738	-0.000910738
633.8	0.09771	0.094190738	0.003519262
633.84	0.09511	0.094190739	0.000919261
633.88	0.09618	0.094190739	0.001989261
633.92	0.0942	0.09419074	9.26029E-06
633.96	0.09328	0.09419074	-0.00091074
634	0.09318	0.094190741	-0.001010741
634.04	0.08768	0.094190741	-0.006510741
634.08	0.08794	0.094190741	-0.006250741
634.12	0.08763	0.094190742	-0.006560742
634.16	0.08962	0.094190742	-0.004570742
634.2	0.09221	0.094190743	-0.001980743
634.24	0.10021	0.094190743	0.006019257
634.28	0.09318	0.094190744	-0.001010744
634.32	0.09226	0.094190744	-0.001930744
634.36	0.09221	0.094190744	-0.001980744
634.4	0.09695	0.094190745	0.002759255
634.44	0.09124	0.094190745	-0.002950745
634.48	0.09043	0.094190746	-0.003760746
634.52	0.09211	0.094190746	-0.002080746
634.56	0.08941	0.094190747	-0.004780747
634.6	0.0944	0.094190747	0.000209253
634.64	0.09415	0.094190747	-4.07474E-05
634.68	0.09364	0.094190748	-0.000550748
634.72	0.09909	0.094190748	0.004899252
634.76	0.09318	0.094190749	-0.001010749
634.8	0.0941	0.094190749	-9.07491E-05
634.84	0.09496	0.094190749	0.000769251
634.88	0.09613	0.09419075	0.00193925
634.92	0.0941	0.09419075	-9.07503E-05
634.96	0.0944	0.094190751	0.000209249
635	0.0942	0.094190751	9.24881E-06
635.04	0.09231	0.094190752	-0.001880752
635.08	0.10224	0.094190752	0.008049248
635.12	0.09247	0.094190752	-0.001720752
635.16	0.08855	0.094190753	-0.005640753
635.2	0.0941	0.094190753	-9.07533E-05
635.24	0.0945	0.094190754	0.000309246
635.28	0.09522	0.094190754	0.001029246
635.32	0.09415	0.094190755	-4.07546E-05
635.36	0.09191	0.094190755	-0.002280755
635.4	0.09145	0.094190755	-0.002740755
635.44	0.09053	0.094190756	-0.003660756
635.48	0.09623	0.094190756	0.002039244
635.52	0.09613	0.094190757	0.001939243
635.56	0.0943	0.094190757	0.000109243
635.6	0.09338	0.094190758	-0.000810758
635.64	0.09359	0.094190758	-0.000600758
635.68	0.0914	0.094190758	-0.002790758
635.72	0.09812	0.094190759	0.003929241
635.76	0.0943	0.094190759	0.000109241
635.8	0.09588	0.09419076	0.00168924
635.84	0.09598	0.09419076	0.00178924
635.88	0.09231	0.094190761	-0.001880761
635.92	0.0941	0.094190761	-9.0761E-05
635.96	0.09496	0.094190761	0.000769239
636	0.09791	0.094190762	0.003719238
636.04	0.09221	0.094190762	-0.001980762
636.08	0.08931	0.094190763	-0.004880763
636.12	0.08941	0.094190763	-0.004780763
636.16	0.08885	0.094190764	-0.005340764
636.2	0.09435	0.094190764	0.000159236
636.24	0.09542	0.094190764	0.001229236
636.28	0.09522	0.094190765	0.001029235
636.32	0.08758	0.094190765	-0.006610765
636.36	0.09333	0.094190766	-0.000860766
636.4	0.09226	0.094190766	-0.001930766
636.44	0.09221	0.094190767	-0.001980767
636.48	0.09028	0.094190767	-0.003910767
636.52	0.09629	0.094190767	0.002099233
636.56	0.08865	0.094190768	-0.005540768
636.6	0.09425	0.094190768	5.92318E-05
636.64	0.09343	0.094190769	-0.000760769
636.68	0.09028	0.094190769	-0.003910769
636.72	0.09068	0.094190769	-0.003510769
636.76	0.09359	0.09419077	-0.00060077
636.8	0.0886	0.09419077	-0.00559077
636.84	0.09394	0.094190771	-0.000250771
636.88	0.09318	0.094190771	-0.001010771
636.92	0.09043	0.094190772	-0.003760772
636.96	0.09883	0.094190772	0.004639228
637	0.09893	0.094190772	0.004739228
637.04	0.09914	0.094190773	0.004949227
637.08	0.09797	0.094190773	0.003779227
637.12	0.09313	0.094190774	-0.001060774
637.16	0.09527	0.094190774	0.001079226
637.2	0.09221	0.094190775	-0.001980775
637.24	0.09221	0.094190775	-0.001980775
637.28	0.0886	0.094190775	-0.005590775
637.32	0.0885	0.094190776	-0.005690776
637.36	0.09791	0.094190776	0.003719224
637.4	0.09735	0.094190777	0.003159223
637.44	0.09236	0.094190777	-0.001830777
637.48	0.09511	0.094190778	0.000919222
637.52	0.09216	0.094190778	-0.002030778
637.56	0.09338	0.094190778	-0.000810778
637.6	0.09338	0.094190779	-0.000810779
637.64	0.09435	0.094190779	0.000159221
637.68	0.09532	0.09419078	0.00112922
637.72	0.0914	0.09419078	-0.00279078
637.76	0.09725	0.094190781	0.003059219
637.8	0.09323	0.094190781	-0.000960781
637.84	0.09618	0.094190781	0.001989219
637.88	0.09613	0.094190782	0.001939218
637.92	0.08692	0.094190782	-0.007270782
637.96	0.09028	0.094190783	-0.003910783
638	0.09236	0.094190783	-0.001830783
638.04	0.0942	0.094190784	9.21649E-06
638.08	0.09893	0.094190784	0.004739216
638.12	0.09175	0.094190784	-0.002440784
638.16	0.09435	0.094190785	0.000159215
638.2	0.0943	0.094190785	0.000109215
638.24	0.09435	0.094190786	0.000159214
638.28	0.09613	0.094190786	0.001939214
638.32	0.09629	0.094190786	0.002099214
638.36	0.09603	0.094190787	0.001839213
638.4	0.09338	0.094190787	-0.000810787
638.44	0.09603	0.094190788	0.001839212
638.48	0.09603	0.094190788	0.001839212
638.52	0.09196	0.094190789	-0.002230789
638.56	0.0944	0.094190789	0.000209211
638.6	0.08936	0.094190789	-0.004830789
638.64	0.09898	0.09419079	0.00478921
638.68	0.09338	0.09419079	-0.00081079
638.72	0.09053	0.094190791	-0.003660791
638.76	0.09791	0.094190791	0.003719209
638.8	0.09797	0.094190792	0.003779208
638.84	0.09593	0.094190792	0.001739208
638.88	0.0941	0.094190792	-9.07924E-05
638.92	0.09914	0.094190793	0.004949207
638.96	0.09354	0.094190793	-0.000650793
639	0.09888	0.094190794	0.004689206
639.04	0.10173	0.094190794	0.007539206
639.08	0.10189	0.094190795	0.007699205
639.12	0.0944	0.094190795	0.000209205
639.16	0.09511	0.094190795	0.000919205
639.2	0.1027	0.094190796	0.008509204
639.24	0.09797	0.094190796	0.003779204
639.28	0.1	0.094190797	0.005809203
639.32	0.09909	0.094190797	0.004899203
639.36	0.09914	0.094190798	0.004949202
639.4	0.10464	0.094190798	0.010449202
639.44	0.10194	0.094190798	0.007749202
639.48	0.0999	0.094190799	0.005709201
639.52	0.09206	0.094190799	-0.002130799
639.56	0.09975	0.0941908	0.0055592
639.6	0.09781	0.0941908	0.0036192
639.64	0.09827	0.094190801	0.004079199
639.68	0.09827	0.094190801	0.004079199
639.72	0.10061	0.094190801	0.006419199
639.76	0.1027	0.094190802	0.008509198
639.8	0.10071	0.094190802	0.006519198
639.84	0.10759	0.094190803	0.013399197
639.88	0.10183	0.094190803	0.007639197
639.92	0.1025	0.094190804	0.008309196
639.96	0.10275	0.094190804	0.008559196