Raman-Spectrum _CHBr3 _spol001.dat
27/09/2021
15:27:30
_CHBr3
_spol0 Temp: NON
X in nm	Y Signal 	Error Signal				
580,04000	0,11298	0,00041
580,08000	0,10255	0,00027
580,12000	0,10535	0,00047
580,16000	0,10555	0,00068
580,20000	0,10540	0,00025
580,24000	0,10560	0,00042
580,28000	0,10896	0,00052
580,32000	0,10815	0,00042
580,36000	0,10835	0,00060
580,40000	0,10372	0,00050
580,44000	0,10372	0,00038
580,48000	0,10830	0,00038
580,52000	0,10010	0,00036
580,56000	0,10749	0,00034
580,60000	0,10647	0,00052
580,64000	0,10535	0,00025
580,68000	0,10382	0,00034
580,72000	0,10352	0,00020
580,76000	0,10260	0,00046
580,80000	0,10835	0,00046
580,84000	0,10647	0,00034
580,88000	0,10010	0,00048
580,92000	0,10290	0,00034
580,96000	0,11125	0,00046
581,00000	0,10275	0,00060
581,04000	0,10285	0,00057
581,08000	0,11039	0,00051
581,12000	0,10906	0,00040
581,16000	0,10469	0,00048
581,20000	0,10906	0,00033
581,24000	0,11105	0,00047
581,28000	0,10632	0,00040
581,32000	0,10642	0,00025
581,36000	0,11029	0,00036
581,40000	0,10728	0,00038
581,44000	0,10912	0,00038
581,48000	0,10621	0,00048
581,52000	0,11013	0,00044
581,56000	0,10295	0,00033
581,60000	0,10769	0,00046
581,64000	0,10759	0,00044
581,68000	0,10952	0,00034
581,72000	0,10927	0,00066
581,76000	0,10713	0,00048
581,80000	0,10504	0,00031
581,84000	0,10825	0,00042
581,88000	0,10448	0,00033
581,92000	0,10458	0,00027
581,96000	0,10912	0,00044
582,00000	0,10555	0,00044
582,04000	0,10947	0,00052
582,08000	0,10377	0,00023
582,12000	0,11232	0,00053
582,16000	0,10357	0,00048
582,20000	0,10382	0,00025
582,24000	0,10759	0,00038
582,28000	0,09970	0,00051
582,32000	0,10927	0,00062
582,36000	0,10387	0,00041
582,40000	0,10744	0,00041
582,44000	0,10372	0,00044
582,48000	0,10377	0,00040
582,52000	0,10377	0,00033
582,56000	0,10530	0,00033
582,60000	0,10362	0,00046
582,64000	0,10922	0,00032
582,68000	0,10545	0,00047
582,72000	0,10637	0,00041
582,76000	0,10173	0,00051
582,80000	0,10209	0,00032
582,84000	0,10448	0,00033
582,88000	0,10438	0,00041
582,92000	0,10657	0,00050
582,96000	0,10265	0,00027
583,00000	0,10285	0,00057
583,04000	0,10565	0,00051
583,08000	0,10769	0,00051
583,12000	0,10733	0,00046
583,16000	0,10194	0,00040
583,20000	0,10464	0,00046
583,24000	0,10469	0,00048
583,28000	0,10469	0,00036
583,32000	0,10637	0,00025
583,36000	0,10285	0,00047
583,40000	0,10255	0,00027
583,44000	0,10830	0,00044
583,48000	0,10545	0,00047
583,52000	0,10306	0,00042
583,56000	0,10392	0,00047
583,60000	0,10570	0,00048
583,64000	0,09903	0,00032
583,68000	0,09898	0,00062
583,72000	0,10087	0,00025
583,76000	0,10652	0,00023
583,80000	0,10372	0,00050
583,84000	0,10189	0,00041
583,88000	0,10464	0,00039
583,92000	0,10896	0,00047
583,96000	0,10392	0,00041
584,00000	0,10408	0,00042
584,04000	0,10657	0,00038
584,08000	0,10932	0,00020
584,12000	0,10657	0,00044
584,16000	0,10377	0,00046
584,20000	0,09914	0,00038
584,24000	0,10825	0,00053
584,28000	0,10815	0,00027
584,32000	0,10637	0,00052
584,36000	0,10565	0,00039
584,40000	0,10642	0,00034
584,44000	0,10738	0,00034
584,48000	0,10728	0,00038
584,52000	0,10295	0,00051
584,56000	0,10280	0,00034
584,60000	0,10367	0,00036
584,64000	0,10555	0,00038
584,68000	0,10581	0,00040
584,72000	0,10464	0,00032
584,76000	0,11044	0,00025
584,80000	0,10357	0,00042
584,84000	0,10275	0,00023
584,88000	0,10280	0,00041
584,92000	0,10642	0,00025
584,96000	0,10917	0,00048
585,00000	0,10352	0,00031
585,04000	0,10850	0,00047
585,08000	0,10845	0,00034
585,12000	0,10576	0,00038
585,16000	0,10520	0,00027
585,20000	0,10723	0,00036
585,24000	0,11212	0,00033
585,28000	0,10285	0,00052
585,32000	0,10917	0,00048
585,36000	0,10275	0,00023
585,40000	0,10270	0,00068
585,44000	0,10168	0,00044
585,48000	0,10168	0,00044
585,52000	0,10525	0,00031
585,56000	0,09715	0,00051
585,60000	0,10647	0,00041
585,64000	0,10652	0,00040
585,68000	0,10545	0,00052
585,72000	0,10570	0,00048
585,76000	0,10555	0,00055
585,80000	0,10285	0,00041
585,84000	0,10560	0,00053
585,88000	0,11136	0,00050
585,92000	0,10825	0,00042
585,96000	0,10260	0,00023
586,00000	0,10545	0,00034
586,04000	0,10545	0,00061
586,08000	0,10469	0,00036
586,12000	0,10856	0,00033
586,16000	0,10642	0,00047
586,20000	0,10815	0,00027
586,24000	0,11029	0,00042
586,28000	0,10922	0,00039
586,32000	0,10000	0,00042
586,36000	0,09990	0,00046
586,40000	0,10637	0,00052
586,44000	0,10906	0,00033
586,48000	0,10464	0,00032
586,52000	0,10494	0,00057
586,56000	0,10270	0,00031
586,60000	0,11029	0,00042
586,64000	0,11029	0,00015
586,68000	0,11151	0,00041
586,72000	0,10667	0,00039
586,76000	0,11421	0,00059
586,80000	0,10830	0,00031
586,84000	0,10713	0,00062
586,88000	0,10453	0,00031
586,92000	0,10464	0,00023
586,96000	0,10637	0,00047
587,00000	0,10632	0,00033
587,04000	0,11212	0,00040
587,08000	0,10759	0,00031
587,12000	0,11222	0,00027
587,16000	0,10469	0,00036
587,20000	0,11227	0,00032
587,24000	0,11217	0,00020
587,28000	0,10341	0,00034
587,32000	0,11013	0,00044
587,36000	0,11024	0,00039
587,40000	0,10565	0,00039
587,44000	0,10443	0,00034
587,48000	0,10749	0,00025
587,52000	0,10744	0,00034
587,56000	0,10754	0,00033
587,60000	0,10825	0,00053
587,64000	0,10530	0,00046
587,68000	0,10723	0,00036
587,72000	0,10178	0,00047
587,76000	0,10917	0,00048
587,80000	0,10942	0,00041
587,84000	0,10912	0,00031
587,88000	0,10754	0,00046
587,92000	0,10280	0,00047
587,96000	0,11309	0,00025
588,00000	0,10540	0,00041
588,04000	0,10173	0,00046
588,08000	0,09995	0,00038
588,12000	0,09995	0,00050
588,16000	0,10458	0,00042
588,20000	0,10265	0,00027
588,24000	0,10550	0,00051
588,28000	0,10565	0,00039
588,32000	0,10754	0,00046
588,36000	0,09914	0,00050
588,40000	0,09903	0,00039
588,44000	0,10178	0,00041
588,48000	0,10738	0,00041
588,52000	0,10545	0,00041
588,56000	0,10912	0,00055
588,60000	0,10087	0,00041
588,64000	0,10387	0,00034
588,68000	0,10357	0,00048
588,72000	0,10387	0,00041
588,76000	0,10387	0,00041
588,80000	0,10728	0,00044
588,84000	0,10464	0,00064
588,88000	0,10738	0,00061
588,92000	0,10922	0,00032
588,96000	0,10377	0,00051
589,00000	0,10362	0,00039
589,04000	0,10922	0,00046
589,08000	0,09588	0,00038
589,12000	0,10927	0,00058
589,16000	0,10733	0,00046
589,20000	0,10362	0,00046
589,24000	0,10845	0,00041
589,28000	0,10840	0,00034
589,32000	0,10015	0,00055
589,36000	0,10402	0,00031
589,40000	0,09883	0,00047
589,44000	0,10718	0,00032
589,48000	0,10927	0,00027
589,52000	0,10443	0,00057
589,56000	0,10290	0,00034
589,60000	0,10250	0,00044
589,64000	0,11197	0,00041
589,68000	0,10448	0,00040
589,72000	0,10840	0,00052
589,76000	0,10458	0,00027
589,80000	0,10728	0,00020
589,84000	0,10550	0,00040
589,88000	0,10565	0,00046
589,92000	0,10367	0,00042
589,96000	0,11054	0,00025
590,00000	0,10810	0,00031
590,04000	0,10433	0,00025
590,08000	0,10637	0,00034
590,12000	0,11136	0,00031
590,16000	0,10830	0,00038
590,20000	0,10845	0,00041
590,24000	0,10581	0,00056
590,28000	0,10947	0,00034
590,32000	0,10102	0,00048
590,36000	0,11034	0,00050
590,40000	0,09888	0,00033
590,44000	0,10387	0,00034
590,48000	0,10357	0,00036
590,52000	0,09695	0,00015
590,56000	0,10637	0,00041
590,60000	0,10637	0,00034
590,64000	0,10738	0,00052
590,68000	0,10514	0,00046
590,72000	0,10275	0,00033
590,76000	0,10270	0,00031
590,80000	0,10061	0,00042
590,84000	0,10545	0,00041
590,88000	0,11034	0,00038
590,92000	0,10469	0,00036
590,96000	0,10932	0,00050
591,00000	0,10642	0,00034
591,04000	0,10723	0,00036
591,08000	0,10749	0,00034
591,12000	0,10922	0,00051
591,16000	0,10616	0,00000
591,20000	0,10087	0,00034
591,24000	0,10209	0,00039
591,28000	0,10555	0,00050
591,32000	0,10458	0,00036
591,36000	0,10474	0,00031
591,40000	0,11120	0,00048
591,44000	0,11212	0,00023
591,48000	0,10840	0,00047
591,52000	0,10754	0,00051
591,56000	0,10275	0,00046
591,60000	0,10626	0,00031
591,64000	0,10504	0,00093
591,68000	0,10453	0,00031
591,72000	0,10255	0,00027
591,76000	0,10749	0,00041
591,80000	0,10199	0,00038
591,84000	0,10565	0,00060
591,88000	0,10733	0,00040
591,92000	0,10464	0,00032
591,96000	0,10438	0,00041
592,00000	0,10835	0,00060
592,04000	0,10845	0,00034
592,08000	0,10158	0,00046
592,12000	0,10260	0,00039
592,16000	0,10275	0,00046
592,20000	0,11029	0,00042
592,24000	0,11018	0,00053
592,28000	0,10830	0,00050
592,32000	0,10377	0,00046
592,36000	0,10295	0,00040
592,40000	0,10932	0,00050
592,44000	0,10560	0,00036
592,48000	0,10199	0,00038
592,52000	0,10357	0,00048
592,56000	0,10377	0,00056
592,60000	0,10341	0,00052
592,64000	0,10647	0,00041
592,68000	0,10535	0,00041
592,72000	0,10988	0,00046
592,76000	0,10708	0,00055
592,80000	0,10458	0,00053
592,84000	0,10464	0,00039
592,88000	0,10204	0,00036
592,92000	0,10372	0,00055
592,96000	0,10540	0,00034
593,00000	0,10759	0,00038
593,04000	0,10352	0,00044
593,08000	0,10632	0,00051
593,12000	0,10642	0,00025
593,16000	0,10611	0,00053
593,20000	0,09985	0,00025
593,24000	0,10637	0,00034
593,28000	0,10805	0,00046
593,32000	0,10504	0,00044
593,36000	0,10545	0,00052
593,40000	0,10749	0,00041
593,44000	0,10728	0,00044
593,48000	0,10387	0,00065
593,52000	0,09878	0,00052
593,56000	0,10464	0,00023
593,60000	0,10637	0,00052
593,64000	0,10825	0,00036
593,68000	0,09629	0,00047
593,72000	0,09639	0,00031
593,76000	0,10535	0,00034
593,80000	0,10535	0,00052
593,84000	0,10357	0,00042
593,88000	0,09786	0,00040
593,92000	0,10372	0,00031
593,96000	0,10820	0,00039
594,00000	0,10438	0,00034
594,04000	0,10448	0,00033
594,08000	0,10357	0,00042
594,12000	0,10754	0,00033
594,16000	0,10723	0,00036
594,20000	0,10484	0,00041
594,24000	0,10540	0,00047
594,28000	0,10362	0,00032
594,32000	0,10387	0,00034
594,36000	0,10301	0,00031
594,40000	0,10667	0,00046
594,44000	0,10448	0,00033
594,48000	0,10275	0,00046
594,52000	0,10652	0,00023
594,56000	0,10550	0,00051
594,60000	0,10530	0,00040
594,64000	0,10565	0,00039
594,68000	0,10367	0,00036
594,72000	0,11008	0,00046
594,76000	0,10922	0,00032
594,80000	0,10912	0,00044
594,84000	0,10545	0,00052
594,88000	0,10275	0,00046
594,92000	0,10285	0,00047
594,96000	0,09995	0,00044
595,00000	0,10647	0,00034
595,04000	0,10204	0,00074
595,08000	0,10530	0,00051
595,12000	0,10917	0,00042
595,16000	0,10479	0,00033
595,20000	0,10469	0,00015
595,24000	0,10377	0,00040
595,28000	0,10906	0,00033
595,32000	0,10453	0,00031
595,36000	0,11044	0,00025
595,40000	0,10275	0,00023
595,44000	0,11329	0,00056
595,48000	0,11309	0,00047
595,52000	0,10367	0,00027
595,56000	0,10453	0,00020
595,60000	0,10769	0,00039
595,64000	0,10372	0,00044
595,68000	0,10540	0,00047
595,72000	0,10626	0,00020
595,76000	0,09903	0,00046
595,80000	0,09914	0,00050
595,84000	0,10448	0,00033
595,88000	0,10453	0,00038
595,92000	0,10570	0,00042
595,96000	0,10555	0,00050
596,00000	0,10464	0,00046
596,04000	0,10942	0,00047
596,08000	0,10927	0,00036
596,12000	0,11202	0,00052
596,16000	0,11110	0,00040
596,20000	0,10377	0,00033
596,24000	0,10810	0,00031
596,28000	0,11039	0,00033
596,32000	0,11100	0,00041
596,36000	0,10352	0,00055
596,40000	0,10392	0,00052
596,44000	0,10927	0,00042
596,48000	0,11029	0,00053
596,52000	0,10657	0,00038
596,56000	0,10764	0,00048
596,60000	0,10570	0,00042
596,64000	0,10392	0,00025
596,68000	0,10352	0,00038
596,72000	0,10382	0,00041
596,76000	0,10825	0,00053
596,80000	0,10367	0,00042
596,84000	0,10464	0,00023
596,88000	0,10357	0,00036
596,92000	0,10005	0,00046
596,96000	0,10010	0,00042
597,00000	0,10367	0,00027
597,04000	0,11044	0,00041
597,08000	0,10744	0,00047
597,12000	0,10632	0,00033
597,16000	0,10738	0,00041
597,20000	0,09985	0,00041
597,24000	0,10825	0,00036
597,28000	0,10840	0,00034
597,32000	0,10280	0,00041
597,36000	0,10550	0,00046
597,40000	0,10657	0,00038
597,44000	0,10173	0,00046
597,48000	0,09903	0,00046
597,52000	0,10194	0,00046
597,56000	0,10168	0,00050
597,60000	0,10652	0,00023
597,64000	0,10464	0,00023
597,68000	0,10845	0,00034
597,72000	0,10632	0,00060
597,76000	0,10448	0,00033
597,80000	0,11095	0,00034
597,84000	0,11110	0,00056
597,88000	0,10260	0,00032
597,92000	0,10937	0,00046
597,96000	0,10178	0,00034
598,00000	0,10738	0,00034
598,04000	0,09903	0,00023
598,08000	0,09893	0,00038
598,12000	0,10957	0,00046
598,16000	0,10947	0,00052
598,20000	0,10723	0,00053
598,24000	0,10275	0,00023
598,28000	0,10733	0,00040
598,32000	0,11130	0,00066
598,36000	0,11115	0,00055
598,40000	0,10565	0,00032
598,44000	0,10530	0,00040
598,48000	0,10458	0,00027
598,52000	0,10550	0,00046
598,56000	0,10453	0,00044
598,60000	0,10662	0,00053
598,64000	0,10632	0,00051
598,68000	0,10092	0,00023
598,72000	0,10632	0,00023
598,76000	0,10632	0,00051
598,80000	0,09980	0,00025
598,84000	0,11003	0,00025
598,88000	0,10922	0,00068
598,92000	0,10626	0,00031
598,96000	0,11304	0,00034
599,00000	0,11151	0,00057
599,04000	0,11136	0,00044
599,08000	0,10479	0,00023
599,12000	0,10647	0,00047
599,16000	0,10464	0,00039
599,20000	0,10738	0,00052
599,24000	0,10341	0,00047
599,28000	0,10469	0,00027
599,32000	0,10453	0,00038
599,36000	0,10749	0,00047
599,40000	0,10469	0,00027
599,44000	0,10173	0,00040
599,48000	0,10626	0,00044
599,52000	0,10382	0,00041
599,56000	0,10173	0,00051
599,60000	0,10514	0,00046
599,64000	0,10545	0,00061
599,68000	0,10754	0,00056
599,72000	0,10545	0,00057
599,76000	0,10453	0,00031
599,80000	0,10637	0,00025
599,84000	0,10163	0,00036
599,88000	0,10464	0,00032
599,92000	0,10479	0,00051
599,96000	0,10280	0,00041
600,00000	0,10443	0,00025
600,04000	0,10372	0,00055
600,08000	0,10372	0,00031
600,12000	0,11034	0,00031
600,16000	0,10744	0,00034
600,20000	0,10397	0,00033
600,24000	0,10377	0,00023
600,28000	0,10718	0,00046
600,32000	0,10642	0,00057
600,36000	0,10377	0,00023
600,40000	0,10357	0,00042
600,44000	0,10525	0,00031
600,48000	0,09909	0,00042
600,52000	0,09903	0,00046
600,56000	0,10382	0,00057
600,60000	0,10576	0,00038
600,64000	0,11787	0,00056
600,68000	0,10906	0,00046
600,72000	0,10555	0,00044
600,76000	0,11049	0,00025
600,80000	0,11029	0,00027
600,84000	0,10382	0,00041
600,88000	0,10464	0,00023
600,92000	0,09812	0,00050
600,96000	0,10550	0,00033
601,00000	0,10199	0,00038
601,04000	0,10056	0,00039
601,08000	0,10178	0,00047
601,12000	0,10168	0,00031
601,16000	0,10163	0,00042
601,20000	0,10469	0,00042
601,24000	0,10550	0,00033
601,28000	0,10850	0,00041
601,32000	0,10367	0,00042
601,36000	0,10733	0,00056
601,40000	0,10769	0,00051
601,44000	0,11008	0,00060
601,48000	0,10626	0,00020
601,52000	0,10642	0,00052
601,56000	0,10642	0,00025
601,60000	0,11044	0,00034
601,64000	0,10265	0,00036
601,68000	0,10280	0,00025
601,72000	0,10759	0,00044
601,76000	0,10749	0,00052
601,80000	0,10927	0,00036
601,84000	0,10255	0,00042
601,88000	0,10570	0,00048
601,92000	0,10820	0,00023
601,96000	0,10092	0,00051
602,00000	0,10082	0,00057
602,04000	0,10082	0,00025
602,08000	0,11110	0,00040
602,12000	0,10937	0,00033
602,16000	0,10637	0,00025
602,20000	0,10652	0,00040
602,24000	0,09797	0,00070
602,28000	0,09797	0,00042
602,32000	0,10270	0,00044
602,36000	0,11105	0,00047
602,40000	0,10830	0,00031
602,44000	0,10357	0,00053
602,48000	0,10270	0,00031
602,52000	0,10357	0,00036
602,56000	0,10550	0,00056
602,60000	0,10591	0,00041
602,64000	0,10764	0,00042
602,68000	0,10382	0,00041
602,72000	0,10458	0,00027
602,76000	0,10469	0,00042
602,80000	0,10301	0,00044
602,84000	0,10000	0,00042
602,88000	0,09995	0,00044
602,92000	0,10540	0,00052
602,96000	0,10525	0,00031
603,00000	0,09878	0,00047
603,04000	0,10555	0,00038
603,08000	0,11212	0,00033
603,12000	0,11024	0,00056
603,16000	0,11039	0,00040
603,20000	0,10061	0,00027
603,24000	0,10540	0,00047
603,28000	0,10295	0,00033
603,32000	0,10738	0,00034
603,36000	0,10886	0,00051
603,40000	0,11095	0,00034
603,44000	0,10194	0,00051
603,48000	0,10183	0,00057
603,52000	0,10540	0,00047
603,56000	0,10825	0,00042
603,60000	0,10733	0,00040
603,64000	0,11115	0,00050
603,68000	0,11085	0,00031
603,72000	0,10362	0,00039
603,76000	0,10392	0,00025
603,80000	0,10657	0,00038
603,84000	0,10469	0,00027
603,88000	0,11288	0,00038
603,92000	0,10540	0,00052
603,96000	0,10820	0,00032
604,00000	0,10082	0,00047
604,04000	0,10092	0,00040
604,08000	0,10550	0,00046
604,12000	0,11003	0,00041
604,16000	0,10555	0,00050
604,20000	0,10754	0,00033
604,24000	0,09995	0,00038
604,28000	0,10189	0,00025
604,32000	0,10194	0,00040
604,36000	0,10194	0,00046
604,40000	0,10555	0,00031
604,44000	0,10637	0,00034
604,48000	0,10738	0,00057
604,52000	0,10377	0,00040
604,56000	0,10637	0,00025
604,60000	0,09990	0,00056
604,64000	0,10005	0,00032
604,68000	0,10840	0,00025
604,72000	0,10260	0,00039
604,76000	0,10209	0,00079
604,80000	0,10927	0,00053
604,84000	0,10372	0,00038
604,88000	0,10942	0,00047
604,92000	0,10474	0,00031
604,96000	0,10448	0,00051
605,00000	0,10173	0,00040
605,04000	0,10881	0,00050
605,08000	0,10377	0,00033
605,12000	0,11024	0,00056
605,16000	0,10845	0,00047
605,20000	0,10586	0,00034
605,24000	0,10545	0,00041
605,28000	0,11024	0,00051
605,32000	0,10820	0,00032
605,36000	0,11018	0,00058
605,40000	0,11018	0,00048
605,44000	0,10825	0,00027
605,48000	0,10448	0,00040
605,52000	0,10453	0,00031
605,56000	0,10555	0,00031
605,60000	0,10311	0,00060
605,64000	0,10738	0,00052
605,68000	0,09695	0,00027
605,72000	0,10657	0,00038
605,76000	0,10850	0,00052
605,80000	0,10917	0,00058
605,84000	0,10927	0,00042
605,88000	0,10932	0,00044
605,92000	0,10474	0,00020
605,96000	0,11278	0,00046
606,00000	0,11395	0,00046
606,04000	0,11003	0,00047
606,08000	0,10906	0,00046
606,12000	0,10932	0,00055
606,16000	0,10275	0,00023
606,20000	0,10647	0,00034
606,24000	0,11039	0,00033
606,28000	0,10367	0,00062
606,32000	0,10565	0,00046
606,36000	0,10937	0,00046
606,40000	0,10850	0,00034
606,44000	0,10815	0,00053
606,48000	0,11202	0,00034
606,52000	0,11115	0,00031
606,56000	0,11003	0,00041
606,60000	0,10840	0,00041
606,64000	0,10632	0,00033
606,68000	0,11691	0,00042
606,72000	0,11701	0,00023
606,76000	0,10382	0,00025
606,80000	0,11411	0,00047
606,84000	0,10764	0,00027
606,88000	0,11212	0,00040
606,92000	0,11614	0,00047
606,96000	0,11120	0,00048
607,00000	0,11120	0,00027
607,04000	0,11217	0,00020
607,08000	0,11039	0,00033
607,12000	0,11217	0,00055
607,16000	0,11278	0,00051
607,20000	0,10922	0,00051
607,24000	0,11472	0,00031
607,28000	0,10912	0,00038
607,32000	0,10947	0,00034
607,36000	0,11324	0,00042
607,40000	0,11024	0,00039
607,44000	0,11405	0,00047
607,48000	0,10744	0,00052
607,52000	0,11207	0,00041
607,56000	0,11477	0,00058
607,60000	0,11487	0,00042
607,64000	0,11701	0,00040
607,68000	0,11777	0,00050
607,72000	0,10830	0,00050
607,76000	0,11018	0,00036
607,80000	0,11411	0,00065
607,84000	0,11222	0,00036
607,88000	0,11207	0,00047
607,92000	0,11599	0,00040
607,96000	0,11411	0,00047
608,00000	0,11095	0,00034
608,04000	0,11390	0,00044
608,08000	0,11589	0,00036
608,12000	0,10723	0,00027
608,16000	0,10912	0,00050
608,20000	0,10901	0,00025
608,24000	0,11232	0,00027
608,28000	0,10082	0,00025
608,32000	0,10927	0,00053
608,36000	0,11115	0,00031
608,40000	0,10550	0,00046
608,44000	0,11293	0,00033
608,48000	0,11304	0,00041
608,52000	0,10830	0,00044
608,56000	0,10438	0,00025
608,60000	0,10906	0,00040
608,64000	0,11217	0,00020
608,68000	0,10530	0,00046
608,72000	0,10260	0,00032
608,76000	0,10952	0,00065
608,80000	0,10927	0,00062
608,84000	0,10840	0,00057
608,88000	0,10581	0,00060
608,92000	0,10657	0,00031
608,96000	0,10830	0,00031
609,00000	0,10932	0,00044
609,04000	0,11293	0,00023
609,08000	0,11298	0,00025
609,12000	0,10662	0,00027
609,16000	0,10540	0,00034
609,20000	0,10749	0,00041
609,24000	0,10438	0,00041
609,28000	0,10764	0,00058
609,32000	0,10932	0,00031
609,36000	0,10922	0,00056
609,40000	0,11304	0,00041
609,44000	0,10738	0,00047
609,48000	0,11207	0,00047
609,52000	0,11034	0,00050
609,56000	0,11100	0,00041
609,60000	0,10285	0,00034
609,64000	0,10453	0,00020
609,68000	0,10484	0,00041
609,72000	0,10728	0,00055
609,76000	0,10835	0,00040
609,80000	0,10458	0,00027
609,84000	0,10840	0,00034
609,88000	0,10178	0,00047
609,92000	0,10840	0,00034
609,96000	0,10810	0,00044
610,00000	0,11222	0,00027
610,04000	0,11029	0,00015
610,08000	0,10367	0,00053
610,12000	0,10275	0,00023
610,16000	0,10830	0,00038
610,20000	0,10540	0,00047
610,24000	0,10555	0,00050
610,28000	0,10744	0,00025
610,32000	0,10647	0,00061
610,36000	0,10759	0,00050
610,40000	0,10642	0,00041
610,44000	0,10922	0,00051
610,48000	0,10942	0,00061
610,52000	0,11212	0,00023
610,56000	0,11192	0,00046
610,60000	0,10901	0,00034
610,64000	0,10570	0,00042
610,68000	0,11105	0,00034
610,72000	0,10840	0,00047
610,76000	0,10652	0,00033
610,80000	0,11594	0,00050
610,84000	0,11543	0,00050
610,88000	0,10458	0,00042
610,92000	0,11207	0,00034
610,96000	0,10560	0,00048
611,00000	0,11146	0,00047
611,04000	0,11298	0,00047
611,08000	0,11288	0,00031
611,12000	0,11207	0,00041
611,16000	0,11217	0,00038
611,20000	0,11013	0,00044
611,24000	0,11105	0,00052
611,28000	0,11120	0,00042
611,32000	0,11115	0,00071
611,36000	0,11955	0,00046
611,40000	0,11105	0,00047
611,44000	0,11105	0,00034
611,48000	0,11115	0,00044
611,52000	0,11013	0,00050
611,56000	0,11227	0,00039
611,60000	0,12266	0,00034
611,64000	0,10744	0,00052
611,68000	0,11421	0,00031
611,72000	0,11405	0,00041
611,76000	0,11696	0,00038
611,80000	0,10901	0,00034
611,84000	0,11482	0,00046
611,88000	0,11013	0,00055
611,92000	0,11034	0,00038
611,96000	0,11207	0,00025
612,00000	0,11416	0,00040
612,04000	0,11405	0,00034
612,08000	0,11319	0,00044
612,12000	0,11594	0,00038
612,16000	0,11314	0,00065
612,20000	0,11298	0,00034
612,24000	0,11110	0,00046
612,28000	0,11573	0,00050
612,32000	0,11579	0,00070
612,36000	0,11039	0,00023
612,40000	0,10815	0,00027
612,44000	0,11701	0,00040
612,48000	0,11222	0,00027
612,52000	0,11095	0,00041
612,56000	0,10922	0,00039
612,60000	0,10932	0,00050
612,64000	0,10906	0,00046
612,68000	0,11095	0,00034
612,72000	0,11105	0,00047
612,76000	0,10917	0,00048
612,80000	0,10738	0,00041
612,84000	0,10367	0,00036
612,88000	0,11029	0,00036
612,92000	0,11013	0,00050
612,96000	0,10382	0,00041
613,00000	0,11298	0,00052
613,04000	0,10637	0,00034
613,08000	0,11110	0,00051
613,12000	0,10469	0,00036
613,16000	0,11024	0,00039
613,20000	0,10993	0,00052
613,24000	0,11039	0,00033
613,28000	0,10718	0,00056
613,32000	0,10835	0,00023
613,36000	0,11125	0,00039
613,40000	0,11100	0,00025
613,44000	0,11115	0,00038
613,48000	0,10825	0,00036
613,52000	0,10840	0,00047
613,56000	0,10845	0,00041
613,60000	0,10927	0,00058
613,64000	0,10769	0,00032
613,68000	0,10764	0,00048
613,72000	0,12164	0,00025
613,76000	0,11375	0,00053
613,80000	0,11395	0,00046
613,84000	0,11115	0,00050
613,88000	0,10922	0,00064
613,92000	0,10850	0,00034
613,96000	0,11105	0,00047
614,00000	0,11008	0,00033
614,04000	0,10937	0,00046
614,08000	0,10927	0,00048
614,12000	0,10555	0,00038
614,16000	0,11227	0,00032
614,20000	0,10514	0,00039
614,24000	0,11298	0,00034
614,28000	0,11024	0,00051
614,32000	0,10835	0,00033
614,36000	0,10657	0,00044
614,40000	0,10657	0,00031
614,44000	0,11517	0,00046
614,48000	0,11217	0,00055
614,52000	0,11207	0,00041
614,56000	0,10850	0,00025
614,60000	0,10535	0,00041
614,64000	0,11502	0,00041
614,68000	0,11477	0,00053
614,72000	0,11095	0,00052
614,76000	0,11003	0,00052
614,80000	0,11202	0,00034
614,84000	0,11024	0,00039
614,88000	0,11029	0,00027
614,92000	0,11482	0,00032
614,96000	0,10932	0,00031
615,00000	0,10932	0,00055
615,04000	0,10825	0,00042
615,08000	0,10845	0,00034
615,12000	0,10835	0,00033
615,16000	0,11227	0,00039
615,20000	0,11278	0,00039
615,24000	0,10754	0,00060
615,28000	0,10754	0,00046
615,32000	0,11013	0,00044
615,36000	0,11197	0,00047
615,40000	0,10825	0,00042
615,44000	0,11207	0,00047
615,48000	0,11517	0,00060
615,52000	0,11024	0,00032
615,56000	0,11008	0,00040
615,60000	0,11293	0,00040
615,64000	0,10942	0,00047
615,68000	0,11400	0,00047
615,72000	0,10983	0,00044
615,76000	0,11136	0,00038
615,80000	0,10845	0,00034
615,84000	0,11008	0,00040
615,88000	0,11029	0,00042
615,92000	0,10835	0,00040
615,96000	0,10794	0,00041
616,00000	0,11237	0,00038
616,04000	0,10728	0,00055
616,08000	0,11085	0,00050
616,12000	0,11222	0,00027
616,16000	0,11222	0,00036
616,20000	0,11298	0,00041
616,24000	0,10845	0,00052
616,28000	0,10917	0,00036
616,32000	0,11685	0,00023
616,36000	0,11115	0,00064
616,40000	0,11034	0,00038
616,44000	0,10983	0,00038
616,48000	0,10825	0,00027
616,52000	0,10825	0,00036
616,56000	0,11217	0,00044
616,60000	0,11517	0,00040
616,64000	0,11044	0,00025
616,68000	0,11416	0,00040
616,72000	0,10835	0,00040
616,76000	0,10840	0,00025
616,80000	0,11670	0,00040
616,84000	0,10270	0,00038
616,88000	0,11380	0,00032
616,92000	0,10952	0,00047
616,96000	0,10830	0,00038
617,00000	0,10820	0,00023
617,04000	0,10835	0,00040
617,08000	0,10555	0,00050
617,12000	0,11614	0,00041
617,16000	0,11288	0,00038
617,20000	0,10830	0,00031
617,24000	0,11130	0,00027
617,28000	0,11594	0,00059
617,32000	0,10896	0,00041
617,36000	0,10906	0,00033
617,40000	0,11232	0,00036
617,44000	0,11293	0,00060
617,48000	0,11278	0,00046
617,52000	0,11202	0,00041
617,56000	0,10642	0,00025
617,60000	0,11685	0,00032
617,64000	0,11706	0,00034
617,68000	0,11314	0,00046
617,72000	0,10947	0,00034
617,76000	0,11120	0,00036
617,80000	0,11487	0,00036
617,84000	0,11421	0,00031
617,88000	0,11202	0,00034
617,92000	0,11207	0,00041
617,96000	0,11105	0,00034
618,00000	0,11375	0,00036
618,04000	0,11293	0,00033
618,08000	0,11125	0,00039
618,12000	0,10993	0,00034
618,16000	0,11436	0,00027
618,20000	0,11039	0,00046
618,24000	0,11029	0,00042
618,28000	0,11523	0,00044
618,32000	0,11202	0,00025
618,36000	0,10825	0,00042
618,40000	0,11685	0,00046
618,44000	0,10535	0,00047
618,48000	0,11416	0,00033
618,52000	0,11405	0,00025
618,56000	0,11405	0,00034
618,60000	0,11319	0,00044
618,64000	0,11421	0,00020
618,68000	0,11889	0,00051
618,72000	0,11130	0,00042
618,76000	0,11691	0,00036
618,80000	0,10927	0,00048
618,84000	0,10906	0,00033
618,88000	0,11217	0,00020
618,92000	0,11400	0,00041
618,96000	0,11492	0,00050
619,00000	0,10901	0,00025
619,04000	0,11976	0,00068
619,08000	0,11685	0,00039
619,12000	0,11696	0,00031
619,16000	0,11609	0,00047
619,20000	0,10942	0,00057
619,24000	0,10194	0,00046
619,28000	0,11711	0,00025
619,32000	0,11222	0,00036
619,36000	0,11477	0,00036
619,40000	0,11482	0,00039
619,44000	0,10912	0,00050
619,48000	0,11874	0,00033
619,52000	0,12042	0,00046
619,56000	0,11212	0,00040
619,60000	0,11319	0,00031
619,64000	0,11594	0,00020
619,68000	0,11329	0,00032
619,72000	0,11293	0,00060
619,76000	0,10942	0,00057
619,80000	0,11309	0,00047
619,84000	0,11416	0,00033
619,88000	0,11222	0,00036
619,92000	0,10850	0,00041
619,96000	0,11517	0,00051
620,00000	0,11497	0,00033
620,04000	0,10937	0,00023
620,08000	0,11477	0,00036
620,12000	0,11151	0,00047
620,16000	0,11502	0,00034
620,20000	0,11329	0,00039
620,24000	0,11278	0,00039
620,28000	0,11288	0,00044
620,32000	0,10947	0,00034
620,36000	0,11212	0,00023
620,40000	0,11395	0,00033
620,44000	0,10932	0,00031
620,48000	0,11579	0,00036
620,52000	0,11217	0,00059
620,56000	0,10932	0,00038
620,60000	0,10912	0,00050
620,64000	0,11039	0,00033
620,68000	0,11024	0,00032
620,72000	0,10825	0,00048
620,76000	0,11125	0,00039
620,80000	0,11777	0,00044
620,84000	0,11029	0,00036
620,88000	0,11018	0,00027
620,92000	0,11599	0,00051
620,96000	0,11584	0,00039
621,00000	0,11100	0,00041
621,04000	0,11416	0,00033
621,08000	0,11207	0,00025
621,12000	0,10932	0,00044
621,16000	0,11803	0,00051
621,20000	0,11777	0,00050
621,24000	0,11792	0,00058
621,28000	0,11589	0,00042
621,32000	0,11614	0,00034
621,36000	0,11711	0,00057
621,40000	0,11197	0,00047
621,44000	0,11584	0,00056
621,48000	0,11584	0,00051
621,52000	0,11395	0,00040
621,56000	0,11696	0,00020
621,60000	0,11889	0,00039
621,64000	0,11960	0,00041
621,68000	0,11777	0,00044
621,72000	0,12149	0,00058
621,76000	0,12144	0,00046
621,80000	0,11971	0,00041
621,84000	0,11696	0,00038
621,88000	0,10845	0,00047
621,92000	0,11680	0,00053
621,96000	0,11492	0,00059
622,00000	0,11304	0,00047
622,04000	0,11599	0,00060
622,08000	0,11584	0,00039
622,12000	0,12429	0,00034
622,16000	0,11400	0,00041
622,20000	0,11889	0,00046
622,24000	0,11309	0,00047
622,28000	0,11395	0,00051
622,32000	0,11864	0,00052
622,36000	0,11894	0,00027
622,40000	0,12042	0,00046
622,44000	0,12164	0,00052
622,48000	0,11319	0,00050
622,52000	0,11334	0,00036
622,56000	0,11609	0,00041
622,60000	0,12342	0,00048
622,64000	0,12358	0,00038
622,68000	0,12154	0,00050
622,72000	0,12648	0,00048
622,76000	0,11797	0,00044
622,80000	0,12286	0,00044
622,84000	0,12434	0,00040
622,88000	0,12826	0,00025
622,92000	0,12337	0,00038
622,96000	0,12347	0,00032
623,00000	0,12342	0,00053
623,04000	0,12327	0,00041
623,08000	0,12449	0,00039
623,12000	0,13473	0,00027
623,16000	0,13661	0,00038
623,20000	0,13666	0,00036
623,24000	0,13686	0,00033
623,28000	0,13753	0,00034
623,32000	0,14888	0,00048
623,36000	0,13870	0,00027
623,40000	0,14633	0,00036
623,44000	0,14903	0,00031
623,48000	0,14995	0,00064
623,52000	0,15932	0,00034
623,56000	0,15921	0,00031
623,60000	0,16604	0,00025
623,64000	0,16329	0,00055
623,68000	0,17062	0,00047
623,72000	0,17077	0,00053
623,76000	0,17729	0,00023
623,80000	0,17347	0,00044
623,84000	0,17352	0,00040
623,88000	0,17332	0,00027
623,92000	0,17815	0,00041
623,96000	0,17072	0,00031
624,00000	0,17607	0,00023
624,04000	0,17785	0,00031
624,08000	0,17444	0,00048
624,12000	0,17439	0,00051
624,16000	0,17143	0,00020
624,20000	0,17332	0,00048
624,24000	0,16207	0,00020
624,28000	0,16202	0,00033
624,32000	0,16405	0,00040
624,36000	0,16522	0,00046
624,40000	0,16599	0,00057
624,44000	0,16588	0,00033
624,48000	0,15290	0,00020
624,52000	0,15540	0,00046
624,56000	0,14246	0,00040
624,60000	0,14114	0,00023
624,64000	0,13936	0,00031
624,68000	0,13742	0,00034
624,72000	0,13742	0,00052
624,76000	0,12846	0,00031
624,80000	0,13585	0,00046
624,84000	0,13213	0,00051
624,88000	0,12515	0,00033
624,92000	0,13233	0,00041
624,96000	0,13024	0,00046
625,00000	0,12546	0,00027
625,04000	0,12531	0,00034
625,08000	0,13096	0,00046
625,12000	0,12337	0,00055
625,16000	0,12363	0,00040
625,20000	0,12536	0,00033
625,24000	0,12352	0,00036
625,28000	0,12744	0,00031
625,32000	0,12724	0,00057
625,36000	0,13019	0,00031
625,40000	0,12724	0,00041
625,44000	0,13671	0,00023
625,48000	0,14053	0,00025
625,52000	0,14206	0,00034
625,56000	0,14898	0,00036
625,60000	0,14898	0,00036
625,64000	0,14796	0,00062
625,68000	0,14801	0,00038
625,72000	0,14812	0,00041
625,76000	0,16319	0,00032
625,80000	0,16792	0,00046
625,84000	0,18391	0,00040
625,88000	0,17642	0,00032
625,92000	0,17632	0,00038
625,96000	0,18981	0,00040
626,00000	0,20458	0,00033
626,04000	0,20641	0,00048
626,08000	0,21481	0,00025
626,12000	0,23085	0,00027
626,16000	0,24419	0,00042
626,20000	0,24409	0,00042
626,24000	0,26002	0,00050
626,28000	0,26491	0,00044
626,32000	0,26323	0,00047
626,36000	0,27245	0,00047
626,40000	0,27428	0,00044
626,44000	0,28263	0,00041
626,48000	0,28278	0,00053
626,52000	0,27978	0,00060
626,56000	0,27698	0,00041
626,60000	0,29887	0,00047
626,64000	0,28156	0,00052
626,68000	0,28360	0,00052
626,72000	0,28283	0,00039
626,76000	0,27708	0,00046
626,80000	0,27728	0,00062
626,84000	0,27535	0,00023
626,88000	0,25269	0,00038
626,92000	0,25162	0,00046
626,96000	0,26186	0,00038
627,00000	0,23767	0,00051
627,04000	0,23497	0,00023
627,08000	0,23487	0,00038
627,12000	0,23004	0,00033
627,16000	0,21206	0,00032
627,20000	0,21339	0,00041
627,24000	0,19328	0,00036
627,28000	0,18391	0,00065
627,32000	0,17719	0,00041
627,36000	0,17047	0,00046
627,40000	0,17087	0,00048
627,44000	0,16120	0,00058
627,48000	0,15199	0,00023
627,52000	0,14903	0,00059
627,56000	0,14455	0,00041
627,60000	0,14435	0,00039
627,64000	0,13946	0,00041
627,68000	0,13936	0,00044
627,72000	0,13467	0,00039
627,76000	0,13630	0,00044
627,80000	0,14338	0,00042
627,84000	0,13310	0,00027
627,88000	0,12836	0,00025
627,92000	0,12551	0,00023
627,96000	0,12500	0,00051
628,00000	0,13305	0,00038
628,04000	0,13294	0,00041
628,08000	0,12836	0,00052
628,12000	0,13579	0,00055
628,16000	0,13213	0,00051
628,20000	0,12541	0,00038
628,24000	0,12245	0,00056
628,28000	0,12251	0,00036
628,32000	0,13671	0,00000
628,36000	0,12826	0,00047
628,40000	0,13371	0,00036
628,44000	0,13498	0,00025
628,48000	0,12159	0,00051
628,52000	0,13024	0,00040
628,56000	0,13024	0,00040
628,60000	0,12526	0,00047
628,64000	0,12607	0,00053
628,68000	0,12638	0,00040
628,72000	0,12454	0,00053
628,76000	0,12352	0,00048
628,80000	0,11971	0,00041
628,84000	0,11996	0,00036
628,88000	0,12266	0,00034
628,92000	0,12352	0,00053
628,96000	0,12358	0,00044
629,00000	0,12368	0,00057
629,04000	0,12169	0,00034
629,08000	0,11894	0,00036
629,12000	0,11405	0,00041
629,16000	0,11395	0,00056
629,20000	0,11797	0,00038
629,24000	0,12444	0,00027
629,28000	0,11039	0,00033
629,32000	0,11411	0,00041
629,36000	0,11675	0,00038
629,40000	0,11034	0,00044
629,44000	0,11054	0,00034
629,48000	0,11222	0,00027
629,52000	0,10774	0,00036
629,56000	0,11400	0,00047
629,60000	0,11293	0,00051
629,64000	0,10830	0,00038
629,68000	0,11029	0,00042
629,72000	0,10912	0,00031
629,76000	0,10927	0,00036
629,80000	0,10922	0,00046
629,84000	0,10474	0,00055
629,88000	0,11186	0,00038
629,92000	0,11024	0,00032
629,96000	0,10688	0,00034
630,00000	0,10453	0,00038
630,04000	0,10458	0,00048
630,08000	0,10759	0,00031
630,12000	0,10367	0,00048
630,16000	0,10290	0,00047
630,20000	0,10443	0,00025
630,24000	0,11095	0,00047
630,28000	0,10637	0,00025
630,32000	0,10647	0,00057
630,36000	0,10647	0,00041
630,40000	0,10092	0,00040
630,44000	0,10657	0,00044
630,48000	0,10840	0,00034
630,52000	0,10458	0,00027
630,56000	0,10912	0,00031
630,60000	0,10652	0,00040
630,64000	0,10637	0,00041
630,68000	0,10102	0,00053
630,72000	0,10728	0,00020
630,76000	0,10565	0,00046
630,80000	0,10647	0,00025
630,84000	0,10367	0,00042
630,88000	0,09700	0,00039
630,92000	0,09685	0,00033
630,96000	0,10194	0,00046
631,00000	0,10545	0,00025
631,04000	0,10723	0,00058
631,08000	0,10968	0,00042
631,12000	0,09990	0,00060
631,16000	0,10280	0,00025
631,20000	0,10183	0,00034
631,24000	0,10158	0,00046
631,28000	0,10733	0,00040
631,32000	0,10530	0,00046
631,36000	0,10672	0,00042
631,40000	0,10285	0,00057
631,44000	0,10387	0,00052
631,48000	0,10825	0,00042
631,52000	0,10830	0,00044
631,56000	0,10545	0,00041
631,60000	0,10555	0,00038
631,64000	0,10723	0,00042
631,68000	0,11212	0,00040
631,72000	0,11487	0,00042
631,76000	0,12347	0,00039
631,80000	0,12358	0,00044
631,84000	0,11365	0,00072
631,88000	0,11691	0,00036
631,92000	0,11411	0,00034
631,96000	0,11965	0,00034
632,00000	0,12643	0,00044
632,04000	0,11960	0,00041
632,08000	0,11889	0,00032
632,12000	0,11864	0,00061
632,16000	0,12072	0,00041
632,20000	0,11797	0,00050
632,24000	0,11955	0,00051
632,28000	0,12536	0,00046
632,32000	0,12225	0,00047
632,36000	0,12918	0,00031
632,40000	0,12923	0,00033
632,44000	0,12536	0,00023
632,48000	0,13111	0,00056
632,52000	0,13116	0,00058
632,56000	0,13019	0,00050
632,60000	0,11584	0,00032
632,64000	0,12714	0,00020
632,68000	0,12724	0,00041
632,72000	0,12424	0,00041
632,76000	0,12526	0,00041
632,80000	0,12052	0,00038
632,84000	0,11584	0,00046
632,88000	0,11889	0,00039
632,92000	0,11507	0,00047
632,96000	0,12083	0,00031
633,00000	0,12083	0,00020
633,04000	0,11950	0,00031
633,08000	0,11971	0,00057
633,12000	0,11400	0,00034
633,16000	0,11110	0,00033
633,20000	0,10835	0,00023
633,24000	0,11298	0,00034
633,28000	0,11319	0,00038
633,32000	0,11767	0,00041
633,36000	0,11130	0,00042
633,40000	0,10453	0,00031
633,44000	0,11502	0,00052
633,48000	0,10255	0,00036
633,52000	0,10754	0,00051
633,56000	0,10912	0,00044
633,60000	0,10891	0,00041
633,64000	0,10285	0,00034
633,68000	0,10952	0,00041
633,72000	0,10382	0,00034
633,76000	0,10270	0,00020
633,80000	0,10820	0,00039
633,84000	0,10392	0,00025
633,88000	0,10377	0,00040
633,92000	0,10346	0,00051
633,96000	0,10657	0,00038
634,00000	0,10270	0,00031
634,04000	0,10861	0,00038
634,08000	0,10469	0,00042
634,12000	0,10550	0,00051
634,16000	0,10565	0,00046
634,20000	0,11222	0,00027
634,24000	0,10194	0,00040
634,28000	0,10845	0,00034
634,32000	0,11120	0,00042
634,36000	0,10652	0,00040
634,40000	0,10713	0,00027
634,44000	0,10357	0,00036
634,48000	0,10357	0,00053
634,52000	0,10458	0,00042
634,56000	0,10087	0,00041
634,60000	0,10357	0,00066
634,64000	0,09985	0,00052
634,68000	0,10937	0,00040
634,72000	0,10932	0,00031
634,76000	0,10927	0,00036
634,80000	0,09878	0,00047
634,84000	0,10642	0,00034
634,88000	0,10352	0,00059
634,92000	0,10555	0,00059
634,96000	0,10560	0,00053
