Raman-Spectrum _CCl4 _spol9001.dat
27/09/2021
13:02:35
_CCl4
_spol90 Temp: NON
X in nm	Y Signal 	Error Signal				
585,04000	0,10840	0,00025
585,08000	0,10845	0,00034
585,12000	0,11482	0,00032
585,16000	0,11594	0,00050
585,20000	0,10713	0,00042
585,24000	0,10657	0,00038
585,28000	0,11293	0,00046
585,32000	0,11477	0,00036
585,36000	0,11482	0,00046
585,40000	0,11115	0,00050
585,44000	0,10840	0,00052
585,48000	0,11283	0,00048
585,52000	0,11288	0,00044
585,56000	0,11390	0,00059
585,60000	0,11120	0,00053
585,64000	0,11212	0,00046
585,68000	0,11217	0,00020
585,72000	0,11304	0,00034
585,76000	0,10922	0,00032
585,80000	0,10642	0,00025
585,84000	0,10901	0,00041
585,88000	0,10642	0,00025
585,92000	0,11696	0,00055
585,96000	0,11660	0,00041
586,00000	0,10530	0,00033
586,04000	0,11482	0,00060
586,08000	0,11614	0,00057
586,12000	0,11431	0,00039
586,16000	0,10901	0,00025
586,20000	0,11976	0,00051
586,24000	0,11955	0,00051
586,28000	0,11706	0,00041
586,32000	0,11685	0,00023
586,36000	0,12088	0,00036
586,40000	0,13019	0,00038
586,44000	0,13213	0,00046
586,48000	0,13101	0,00044
586,52000	0,13681	0,00031
586,56000	0,13666	0,00027
586,60000	0,14700	0,00038
586,64000	0,14124	0,00042
586,68000	0,14791	0,00046
586,72000	0,15188	0,00044
586,76000	0,15361	0,00038
586,80000	0,15458	0,00053
586,84000	0,15448	0,00036
586,88000	0,15937	0,00034
586,92000	0,16288	0,00034
586,96000	0,15830	0,00041
587,00000	0,16390	0,00052
587,04000	0,16522	0,00039
587,08000	0,16614	0,00044
587,12000	0,17210	0,00520
587,16000	0,17617	0,00034
587,20000	0,17128	0,00036
587,24000	0,16303	0,00033
587,28000	0,15428	0,00041
587,32000	0,15555	0,00032
587,36000	0,16670	0,00053
587,40000	0,15809	0,00023
587,44000	0,15830	0,00057
587,48000	0,14903	0,00044
587,52000	0,15076	0,00034
587,56000	0,15081	0,00023
587,60000	0,14898	0,00027
587,64000	0,14980	0,00040
587,68000	0,13666	0,00027
587,72000	0,13666	0,00036
587,76000	0,14323	0,00038
587,80000	0,13198	0,00040
587,84000	0,12892	0,00023
587,88000	0,12795	0,00050
587,92000	0,12734	0,00041
587,96000	0,12454	0,00042
588,00000	0,12189	0,00042
588,04000	0,12159	0,00051
588,08000	0,12088	0,00053
588,12000	0,11141	0,00033
588,16000	0,11013	0,00059
588,20000	0,11125	0,00023
588,24000	0,11105	0,00052
588,28000	0,11034	0,00031
588,32000	0,11044	0,00047
588,36000	0,10830	0,00031
588,40000	0,10642	0,00047
588,44000	0,10713	0,00042
588,48000	0,10733	0,00046
588,52000	0,10285	0,00041
588,56000	0,10367	0,00036
588,60000	0,10367	0,00053
588,64000	0,09888	0,00046
588,68000	0,10545	0,00047
588,72000	0,10021	0,00033
588,76000	0,10637	0,00047
588,80000	0,10102	0,00036
588,84000	0,10749	0,00057
588,88000	0,10637	0,00025
588,92000	0,10647	0,00034
588,96000	0,10082	0,00052
589,00000	0,11237	0,00031
589,04000	0,11502	0,00052
589,08000	0,10840	0,00025
589,12000	0,11604	0,00041
589,16000	0,12133	0,00038
589,20000	0,12144	0,00046
589,24000	0,12179	0,00051
589,28000	0,12251	0,00042
589,32000	0,12144	0,00046
589,36000	0,12724	0,00034
589,40000	0,12923	0,00033
589,44000	0,13274	0,00031
589,48000	0,12841	0,00040
589,52000	0,12831	0,00041
589,56000	0,13951	0,00041
589,60000	0,13564	0,00036
589,64000	0,14796	0,00036
589,68000	0,13854	0,00052
589,72000	0,14425	0,00050
589,76000	0,15199	0,00039
589,80000	0,15173	0,00034
589,84000	0,14689	0,00032
589,88000	0,15351	0,00046
589,92000	0,15270	0,00052
589,96000	0,15438	0,00040
590,00000	0,15361	0,00038
590,04000	0,15239	0,00038
590,08000	0,15265	0,00040
590,12000	0,15657	0,00046
590,16000	0,14929	0,00033
590,20000	0,14710	0,00034
590,24000	0,15550	0,00048
590,28000	0,15265	0,00033
590,32000	0,15168	0,00034
590,36000	0,14812	0,00047
590,40000	0,14791	0,00039
590,44000	0,14094	0,00033
590,48000	0,14700	0,00031
590,52000	0,14613	0,00034
590,56000	0,14328	0,00048
590,60000	0,14226	0,00048
590,64000	0,14409	0,00047
590,68000	0,14409	0,00034
590,72000	0,13956	0,00047
590,76000	0,14537	0,00039
590,80000	0,13498	0,00025
590,84000	0,14129	0,00039
590,88000	0,13936	0,00031
590,92000	0,13004	0,00042
590,96000	0,12979	0,00047
591,00000	0,13274	0,00044
591,04000	0,13946	0,00025
591,08000	0,12729	0,00057
591,12000	0,13279	0,00033
591,16000	0,12271	0,00034
591,20000	0,12536	0,00033
591,24000	0,13004	0,00048
591,28000	0,13014	0,00036
591,32000	0,11859	0,00034
591,36000	0,12352	0,00036
591,40000	0,11691	0,00036
591,44000	0,12352	0,00053
591,48000	0,11579	0,00027
591,52000	0,12337	0,00044
591,56000	0,12327	0,00041
591,60000	0,11405	0,00052
591,64000	0,12001	0,00038
591,68000	0,11721	0,00033
591,72000	0,11701	0,00046
591,76000	0,11217	0,00031
591,80000	0,11186	0,00031
591,84000	0,12062	0,00034
591,88000	0,12062	0,00034
591,92000	0,11487	0,00053
591,96000	0,11604	0,00034
592,00000	0,10850	0,00025
592,04000	0,11685	0,00051
592,08000	0,11482	0,00051
592,12000	0,10835	0,00040
592,16000	0,10840	0,00041
592,20000	0,11186	0,00064
592,24000	0,10464	0,00039
592,28000	0,10285	0,00025
592,32000	0,10540	0,00041
592,36000	0,10840	0,00034
592,40000	0,10626	0,00031
592,44000	0,10672	0,00058
592,48000	0,11024	0,00032
592,52000	0,10550	0,00033
592,56000	0,10835	0,00060
592,60000	0,11034	0,00020
592,64000	0,10570	0,00027
592,68000	0,10723	0,00036
592,72000	0,10749	0,00041
592,76000	0,10749	0,00047
592,80000	0,10830	0,00044
592,84000	0,11125	0,00023
592,88000	0,10560	0,00042
592,92000	0,11584	0,00051
592,96000	0,10611	0,00058
593,00000	0,10540	0,00047
593,04000	0,10545	0,00047
593,08000	0,10545	0,00047
593,12000	0,11018	0,00042
593,16000	0,10917	0,00036
593,20000	0,11731	0,00048
593,24000	0,11808	0,00041
593,28000	0,11222	0,00027
593,32000	0,11273	0,00089
593,36000	0,11390	0,00059
593,40000	0,11589	0,00027
593,44000	0,11304	0,00057
593,48000	0,11400	0,00041
593,52000	0,12251	0,00015
593,56000	0,11115	0,00038
593,60000	0,11879	0,00020
593,64000	0,11884	0,00036
593,68000	0,11604	0,00034
593,72000	0,11507	0,00047
593,76000	0,11008	0,00033
593,80000	0,11624	0,00031
593,84000	0,11390	0,00044
593,88000	0,11120	0,00053
593,92000	0,11110	0,00033
593,96000	0,11594	0,00038
594,00000	0,11492	0,00044
594,04000	0,11599	0,00051
594,08000	0,11080	0,00048
594,12000	0,10917	0,00048
594,16000	0,11263	0,00040
594,20000	0,11986	0,00048
594,24000	0,11986	0,00036
594,28000	0,11288	0,00038
594,32000	0,11497	0,00033
594,36000	0,11034	0,00055
594,40000	0,10275	0,00033
594,44000	0,10555	0,00055
594,48000	0,11691	0,00027
594,52000	0,11655	0,00034
594,56000	0,10453	0,00038
594,60000	0,10652	0,00023
594,64000	0,10815	0,00042
594,68000	0,10667	0,00032
594,72000	0,10540	0,00047
594,76000	0,10917	0,00042
594,80000	0,10947	0,00047
594,84000	0,10077	0,00034
594,88000	0,10535	0,00047
594,92000	0,10759	0,00050
594,96000	0,10458	0,00036
595,00000	0,10932	0,00044
595,04000	0,10647	0,00041
595,08000	0,11497	0,00033
595,12000	0,11482	0,00051
595,16000	0,11024	0,00032
595,20000	0,11105	0,00034
595,24000	0,11405	0,00025
595,28000	0,11115	0,00031
595,32000	0,11105	0,00041
595,36000	0,11405	0,00041
595,40000	0,11395	0,00056
595,44000	0,11115	0,00038
595,48000	0,10840	0,00034
595,52000	0,11487	0,00048
595,56000	0,11288	0,00044
595,60000	0,10535	0,00034
595,64000	0,11884	0,00048
595,68000	0,11212	0,00033
595,72000	0,11207	0,00025
595,76000	0,11797	0,00038
595,80000	0,12067	0,00034
595,84000	0,11507	0,00047
595,88000	0,11309	0,00047
595,92000	0,11599	0,00033
595,96000	0,12251	0,00042
596,00000	0,12266	0,00034
596,04000	0,12449	0,00023
596,08000	0,11945	0,00042
596,12000	0,12128	0,00040
596,16000	0,12510	0,00038
596,20000	0,12444	0,00048
596,24000	0,13024	0,00040
596,28000	0,12999	0,00055
596,32000	0,13411	0,00042
596,36000	0,12638	0,00046
596,40000	0,12841	0,00040
596,44000	0,13294	0,00047
596,48000	0,12984	0,00041
596,52000	0,12714	0,00031
596,56000	0,13310	0,00036
596,60000	0,13284	0,00041
596,64000	0,13080	0,00052
596,68000	0,13004	0,00042
596,72000	0,13305	0,00044
596,76000	0,13086	0,00034
596,80000	0,13931	0,00053
596,84000	0,13859	0,00033
596,88000	0,13849	0,00025
596,92000	0,12704	2,77556E-17
596,96000	0,13294	0,00025
597,00000	0,13656	0,00033
597,04000	0,14226	0,00053
597,08000	0,13579	0,00031
597,12000	0,13666	0,00027
597,16000	0,13681	0,00031
597,20000	0,14216	0,00056
597,24000	0,13676	0,00027
597,28000	0,12999	0,00044
597,32000	0,13946	0,00034
597,36000	0,13498	0,00041
597,40000	0,13381	0,00046
597,44000	0,12561	0,00044
597,48000	0,12520	0,00047
597,52000	0,12907	0,00032
597,56000	0,13101	0,00055
597,60000	0,13600	0,00034
597,64000	0,12734	0,00041
597,68000	0,13091	0,00057
597,72000	0,12531	0,00041
597,76000	0,12515	0,00040
597,80000	0,13035	0,00025
597,84000	0,13208	0,00027
597,88000	0,12816	0,00055
597,92000	0,12154	0,00044
597,96000	0,12638	0,00023
598,00000	0,12245	0,00032
598,04000	0,12449	0,00032
598,08000	0,12444	0,00015
598,12000	0,13366	0,00023
598,16000	0,12500	0,00046
598,20000	0,12912	0,00036
598,24000	0,12907	0,00046
598,28000	0,13686	0,00033
598,32000	0,12429	0,00034
598,36000	0,12434	0,00033
598,40000	0,12347	0,00056
598,44000	0,12638	0,00046
598,48000	0,12434	0,00033
598,52000	0,12831	0,00061
598,56000	0,12943	0,00056
598,60000	0,13681	0,00031
598,64000	0,13676	0,00036
598,68000	0,12500	0,00039
598,72000	0,12826	0,00025
598,76000	0,12851	0,00036
598,80000	0,12826	0,00041
598,84000	0,13106	0,00058
598,88000	0,13289	0,00025
598,92000	0,13009	0,00051
598,96000	0,13004	0,00036
599,00000	0,13019	0,00038
599,04000	0,12536	0,00046
599,08000	0,12536	0,00056
599,12000	0,12337	0,00038
599,16000	0,12149	0,00027
599,20000	0,12403	0,00042
599,24000	0,12439	0,00031
599,28000	0,12531	0,00041
599,32000	0,12062	0,00034
599,36000	0,11767	0,00057
599,40000	0,11701	0,00051
599,44000	0,12271	0,00025
599,48000	0,11874	0,00033
599,52000	0,11894	0,00015
599,56000	0,11838	0,00039
599,60000	0,11869	0,00057
599,64000	0,12337	0,00055
599,68000	0,11288	0,00038
599,72000	0,11421	0,00044
599,76000	0,11186	0,00031
599,80000	0,10906	0,00046
599,84000	0,10932	0,00050
599,88000	0,11619	0,00023
599,92000	0,11105	0,00047
599,96000	0,11411	0,00041
600,00000	0,11212	0,00051
600,04000	0,11701	0,00046
600,08000	0,11278	0,00039
600,12000	0,11283	0,00058
600,16000	0,12144	0,00046
600,20000	0,11212	0,00033
600,24000	0,12123	0,00034
600,28000	0,11293	0,00033
600,32000	0,11421	0,00031
600,36000	0,11696	0,00059
600,40000	0,11095	0,00041
600,44000	0,11105	0,00047
600,48000	0,11502	0,00034
600,52000	0,10647	0,00034
600,56000	0,10662	0,00036
600,60000	0,11787	0,00032
600,64000	0,11843	0,00027
600,68000	0,11008	0,00040
600,72000	0,11044	0,00052
600,76000	0,10927	0,00048
600,80000	0,11599	0,00033
600,84000	0,12052	0,00038
600,88000	0,11212	0,00040
600,92000	0,11324	0,00027
600,96000	0,11665	0,00041
601,00000	0,11655	0,00041
601,04000	0,11670	0,00033
601,08000	0,11197	0,00047
601,12000	0,11411	0,00041
601,16000	0,11955	0,00046
601,20000	0,11380	0,00046
601,24000	0,11879	0,00038
601,28000	0,11492	0,00044
601,32000	0,11461	0,00052
601,36000	0,11421	0,00020
601,40000	0,11018	0,00048
601,44000	0,10937	0,00040
601,48000	0,11288	0,00038
601,52000	0,11864	0,00041
601,56000	0,11497	0,00056
601,60000	0,11497	0,00060
601,64000	0,11008	0,00033
601,68000	0,12083	0,00031
601,72000	0,11385	0,00042
601,76000	0,11777	0,00031
601,80000	0,11487	0,00036
601,84000	0,10927	0,00053
601,88000	0,11298	0,00057
601,92000	0,11314	0,00051
601,96000	0,11487	0,00048
602,00000	0,11971	0,00034
602,04000	0,12327	0,00052
602,08000	0,11889	0,00032
602,12000	0,12337	0,00031
602,16000	0,11685	0,00032
602,20000	0,11675	0,00044
602,24000	0,12149	0,00042
602,28000	0,11589	0,00036
602,32000	0,12266	0,00025
602,36000	0,12169	0,00057
602,40000	0,12643	0,00031
602,44000	0,12531	0,00057
602,48000	0,12546	0,00048
602,52000	0,12444	0,00015
602,56000	0,12256	0,00031
602,60000	0,12067	0,00034
602,64000	0,11767	0,00052
602,68000	0,12729	0,00025
602,72000	0,12724	0,00034
602,76000	0,12424	0,00041
602,80000	0,12419	0,00065
602,84000	0,12622	0,00065
602,88000	0,12245	0,00023
602,92000	0,12378	0,00041
602,96000	0,11696	0,00031
603,00000	0,12546	0,00042
603,04000	0,13101	0,00055
603,08000	0,13106	0,00053
603,12000	0,12424	0,00047
603,16000	0,12612	0,00038
603,20000	0,13488	0,00025
603,24000	0,12622	0,00041
603,28000	0,12816	0,00064
603,32000	0,12332	0,00033
603,36000	0,12347	0,00056
603,40000	0,12342	0,00036
603,44000	0,11960	0,00034
603,48000	0,12337	0,00059
603,52000	0,12464	0,00046
603,56000	0,12918	0,00038
603,60000	0,12821	0,00056
603,64000	0,12531	0,00025
603,68000	0,12546	0,00036
603,72000	0,12337	0,00031
603,76000	0,11859	0,00041
603,80000	0,12622	0,00047
603,84000	0,12149	0,00042
603,88000	0,12836	0,00034
603,92000	0,12632	0,00061
603,96000	0,12602	0,00046
604,00000	0,13473	0,00027
604,04000	0,12709	0,00053
604,08000	0,12352	0,00036
604,12000	0,12841	0,00033
604,16000	0,13366	0,00046
604,20000	0,12831	0,00034
604,24000	0,13579	0,00044
604,28000	0,13559	0,00044
604,32000	0,13305	0,00044
604,36000	0,12403	0,00053
604,40000	0,12607	0,00062
604,44000	0,12744	0,00031
604,48000	0,13198	0,00046
604,52000	0,12251	0,00027
604,56000	0,12240	0,00027
604,60000	0,12184	0,00055
604,64000	0,12622	0,00034
604,68000	0,13177	0,00046
604,72000	0,13192	0,00041
604,76000	0,12149	0,00027
604,80000	0,12169	0,00034
604,84000	0,12133	0,00055
604,88000	0,12638	0,00056
604,92000	0,12052	0,00050
604,96000	0,12546	0,00053
605,00000	0,12515	0,00040
605,04000	0,11965	0,00025
605,08000	0,12454	0,00042
605,12000	0,12622	0,00057
605,16000	0,12622	0,00057
605,20000	0,13187	0,00047
605,24000	0,12327	0,00025
605,28000	0,11874	0,00046
605,32000	0,12510	0,00050
605,36000	0,11685	0,00039
605,40000	0,13305	0,00038
605,44000	0,13310	0,00042
605,48000	0,12933	0,00057
605,52000	0,12337	0,00055
605,56000	0,12643	0,00044
605,60000	0,12627	0,00047
605,64000	0,12841	0,00040
605,68000	0,12520	0,00025
605,72000	0,12154	0,00031
605,76000	0,12144	0,00046
605,80000	0,12714	0,00050
605,84000	0,12449	0,00032
605,88000	0,12327	0,00047
605,92000	0,12648	0,00042
605,96000	0,12617	0,00060
606,00000	0,13116	0,00042
606,04000	0,13111	0,00046
606,08000	0,12556	0,00048
606,12000	0,12072	0,00041
606,16000	0,12643	0,00050
606,20000	0,13004	0,00048
606,24000	0,12826	0,00052
606,28000	0,12240	0,00036
606,32000	0,12230	0,00033
606,36000	0,12806	0,00051
606,40000	0,13004	0,00048
606,44000	0,13091	0,00047
606,48000	0,12938	0,00041
606,52000	0,12836	0,00047
606,56000	0,13488	0,00041
606,60000	0,12902	0,00042
606,64000	0,12912	0,00027
606,68000	0,12739	0,00046
606,72000	0,12648	0,00062
606,76000	0,12907	0,00023
606,80000	0,13192	0,00041
606,84000	0,12342	0,00042
606,88000	0,12836	0,00041
606,92000	0,12800	0,00027
606,96000	0,13294	0,00041
607,00000	0,13544	0,00047
607,04000	0,13396	0,00057
607,08000	0,12729	0,00034
607,12000	0,13320	0,00036
607,16000	0,13579	0,00038
607,20000	0,13574	0,00027
607,24000	0,13559	0,00064
607,28000	0,12989	0,00034
607,32000	0,13386	0,00041
607,36000	0,13198	0,00046
607,40000	0,12643	0,00031
607,44000	0,14328	0,00042
607,48000	0,13564	0,00058
607,52000	0,13579	0,00044
607,56000	0,13574	0,00053
607,60000	0,13503	0,00033
607,64000	0,13564	0,00036
607,68000	0,13579	0,00055
607,72000	0,13956	0,00041
607,76000	0,13376	0,00044
607,80000	0,13391	0,00034
607,84000	0,13376	0,00055
607,88000	0,13106	0,00053
607,92000	0,12688	0,00051
607,96000	0,12627	0,00041
608,00000	0,12826	0,00025
608,04000	0,13386	0,00047
608,08000	0,13182	0,00041
608,12000	0,13182	0,00057
608,16000	0,13366	0,00032
608,20000	0,13473	0,00027
608,24000	0,14430	0,00042
608,28000	0,13579	0,00038
608,32000	0,13595	0,00047
608,36000	0,13865	0,00050
608,40000	0,13859	0,00060
608,44000	0,13839	0,00040
608,48000	0,13274	0,00020
608,52000	0,13590	0,00052
608,56000	0,13834	0,00038
608,60000	0,13768	0,00036
608,64000	0,13009	0,00039
608,68000	0,13014	0,00048
608,72000	0,13946	0,00041
608,76000	0,14323	0,00031
608,80000	0,13951	0,00057
608,84000	0,14114	0,00051
608,88000	0,14150	0,00047
608,92000	0,14501	0,00033
608,96000	0,14043	0,00033
609,00000	0,14033	0,00048
609,04000	0,14333	0,00032
609,08000	0,13854	0,00034
609,12000	0,13666	0,00042
609,16000	0,14145	0,00056
609,20000	0,14119	0,00038
609,24000	0,14231	0,00051
609,28000	0,14211	0,00034
609,32000	0,14786	0,00042
609,36000	0,14333	0,00051
609,40000	0,14440	0,00048
609,44000	0,14827	0,00046
609,48000	0,14990	0,00036
609,52000	0,14435	0,00046
609,56000	0,14720	0,00034
609,60000	0,14715	0,00034
609,64000	0,14822	0,00034
609,68000	0,14883	0,00038
609,72000	0,13778	0,00048
609,76000	0,14226	0,00042
609,80000	0,13763	0,00044
609,84000	0,13279	0,00056
609,88000	0,13299	0,00023
609,92000	0,13859	0,00023
609,96000	0,14221	0,00031
610,00000	0,14221	0,00038
610,04000	0,13569	0,00032
610,08000	0,14420	0,00056
610,12000	0,13727	0,00048
610,16000	0,13753	0,00047
610,20000	0,13936	0,00044
610,24000	0,14521	0,00040
610,28000	0,14231	0,00051
610,32000	0,14633	0,00042
610,36000	0,14501	0,00033
610,40000	0,13921	0,00027
610,44000	0,14603	0,00033
610,48000	0,14633	0,00048
610,52000	0,14516	0,00047
610,56000	0,14409	0,00025
610,60000	0,14817	0,00047
610,64000	0,15097	0,00051
610,68000	0,14903	0,00031
610,72000	0,15000	0,00048
610,76000	0,14964	0,00034
610,80000	0,15275	0,00047
610,84000	0,15285	0,00023
610,88000	0,14995	0,00064
610,92000	0,14226	0,00058
610,96000	0,14903	0,00050
611,00000	0,14674	0,00046
611,04000	0,14801	0,00305
611,08000	0,15733	0,00034
611,12000	0,14812	0,00041
611,16000	0,15916	0,00027
611,20000	0,14313	0,00047
611,24000	0,15835	0,00052
611,28000	0,15351	0,00060
611,32000	0,15652	0,00048
611,36000	0,15641	0,00051
611,40000	0,14878	0,00040
611,44000	0,16110	0,00027
611,48000	0,16385	0,00051
611,52000	0,15830	0,00034
611,56000	0,15158	0,00031
611,60000	0,16028	0,00046
611,64000	0,16003	0,00031
611,68000	0,16008	0,00036
611,72000	0,15092	0,00048
611,76000	0,15453	0,00039
611,80000	0,14969	0,00047
611,84000	0,14918	0,00034
611,88000	0,16023	0,00055
611,92000	0,15173	0,00025
611,96000	0,15168	0,00041
612,00000	0,16196	0,00047
612,04000	0,15662	0,00042
612,08000	0,15916	0,00048
612,12000	0,15453	0,00046
612,16000	0,15529	0,00034
612,20000	0,14980	0,00033
612,24000	0,15015	0,00025
612,28000	0,16303	0,00046
612,32000	0,15265	0,00040
612,36000	0,15631	0,00041
612,40000	0,14694	0,00036
612,44000	0,14593	0,00036
612,48000	0,14776	0,00046
612,52000	0,14822	0,00034
612,56000	0,15255	0,00027
612,60000	0,15336	0,00023
612,64000	0,15351	0,00051
612,68000	0,16247	0,00052
612,72000	0,15367	0,00056
612,76000	0,15825	0,00040
612,80000	0,15575	0,00041
612,84000	0,15560	0,00062
612,88000	0,16125	0,00031
612,92000	0,15458	0,00048
612,96000	0,16033	0,00052
613,00000	0,15927	0,00033
613,04000	0,15535	0,00041
613,08000	0,14812	0,00034
613,12000	0,14796	0,00048
613,16000	0,14812	0,00057
613,20000	0,14506	0,00041
613,24000	0,15463	0,00050
613,28000	0,15545	0,00044
613,32000	0,16507	0,00046
613,36000	0,16140	0,00041
613,40000	0,16018	0,00036
613,44000	0,16018	0,00036
613,48000	0,17525	0,00046
613,52000	0,16130	0,00033
613,56000	0,16324	0,00058
613,60000	0,17805	0,00031
613,64000	0,16863	0,00033
613,68000	0,17449	0,00050
613,72000	0,17434	0,00036
613,76000	0,17602	0,00031
613,80000	0,17266	0,00025
613,84000	0,17169	0,00051
613,88000	0,17342	0,00015
613,92000	0,18299	0,00048
613,96000	0,18681	0,00041
614,00000	0,18661	0,00032
614,04000	0,18844	0,00034
614,08000	0,19032	0,00051
614,12000	0,20458	0,00056
614,16000	0,20845	0,00036
614,20000	0,20636	0,00038
614,24000	0,21105	0,00032
614,28000	0,20748	0,00039
614,32000	0,20743	0,00062
614,36000	0,21894	0,00034
614,40000	0,23177	0,00040
614,44000	0,23009	0,00025
614,48000	0,23360	0,00046
614,52000	0,22912	0,00047
614,56000	0,23019	0,00025
614,60000	0,23014	0,00034
614,64000	0,23828	0,00034
614,68000	0,25641	0,00048
614,72000	0,24689	0,00069
614,76000	0,26318	0,00052
614,80000	0,25193	0,00046
614,84000	0,26379	0,00041
614,88000	0,26405	0,00048
614,92000	0,25931	0,00038
614,96000	0,25921	0,00025
615,00000	0,26288	0,00038
615,04000	0,25005	0,00041
615,08000	0,25666	0,00047
615,12000	0,24867	0,00042
615,16000	0,25157	0,00025
615,20000	0,25178	0,00023
615,24000	0,23777	0,00069
615,28000	0,23075	0,00033
615,32000	0,23548	0,00046
615,36000	0,23665	0,00056
615,40000	0,22357	0,00061
615,44000	0,22423	0,00036
615,48000	0,22418	0,00055
615,52000	0,22164	0,00038
615,56000	0,22612	0,00057
615,60000	0,21120	0,00072
615,64000	0,20458	0,00056
615,68000	0,20183	0,00036
615,72000	0,20188	0,00032
615,76000	0,19541	0,00046
615,80000	0,19536	0,00031
615,84000	0,19048	0,00034
615,88000	0,19027	0,00031
615,92000	0,18299	0,00042
615,96000	0,17734	0,00020
616,00000	0,18187	0,00033
616,04000	0,17637	0,00036
616,08000	0,17617	0,00034
616,12000	0,17734	0,00031
616,16000	0,18096	0,00048
616,20000	0,17342	0,00036
616,24000	0,17922	0,00047
616,28000	0,18269	0,00040
616,32000	0,17724	0,00025
616,36000	0,17724	0,00052
616,40000	0,17042	0,00020
616,44000	0,17444	0,00058
616,48000	0,17688	0,00058
616,52000	0,17327	0,00020
616,56000	0,17266	0,00057
616,60000	0,17240	0,00048
616,64000	0,16960	0,00034
616,68000	0,16945	0,00046
616,72000	0,17907	0,00044
616,76000	0,17031	0,00032
616,80000	0,16986	0,00027
616,84000	0,17734	0,00031
616,88000	0,17703	0,00044
616,92000	0,17133	0,00023
616,96000	0,17149	0,00040
617,00000	0,18747	0,00033
617,04000	0,18477	0,00041
617,08000	0,18370	0,00033
617,12000	0,19246	0,00034
617,16000	0,18498	0,00044
617,20000	0,18844	0,00041
617,24000	0,17637	0,00042
617,28000	0,17617	0,00034
617,32000	0,18116	0,00033
617,36000	0,18009	0,00059
617,40000	0,18401	0,00036
617,44000	0,17149	0,00046
617,48000	0,16960	0,00034
617,52000	0,17418	0,00052
617,56000	0,17439	0,00032
617,60000	0,18096	0,00027
617,64000	0,18656	0,00027
617,68000	0,18111	0,00038
617,72000	0,19043	0,00034
617,76000	0,19353	0,00025
617,80000	0,19424	0,00032
617,84000	0,19455	0,00034
617,88000	0,19806	0,00047
617,92000	0,19424	0,00039
617,96000	0,19348	0,00041
618,00000	0,19037	0,00041
618,04000	0,18574	0,00033
618,08000	0,18004	0,00048
618,12000	0,18579	0,00047
618,16000	0,18584	0,00041
618,20000	0,18462	0,00036
618,24000	0,18279	0,00047
618,28000	0,18488	0,00034
618,32000	0,18289	0,00033
618,36000	0,18493	0,00040
618,40000	0,18844	0,00041
618,44000	0,18864	0,00046
618,48000	0,18854	0,00038
618,52000	0,19893	0,00050
618,56000	0,19704	0,00052
618,60000	0,19037	0,00047
618,64000	0,18569	0,00031
618,68000	0,19236	0,00051
618,72000	0,19231	0,00031
618,76000	0,19587	0,00038
618,80000	0,17795	0,00046
618,84000	0,19628	0,00032
618,88000	0,17810	0,00033
618,92000	0,19333	0,00055
618,96000	0,19348	0,00034
619,00000	0,18645	0,00033
619,04000	0,18661	0,00046
619,08000	0,19246	0,00034
619,12000	0,19333	0,00059
619,16000	0,18299	0,00048
619,20000	0,20443	0,00039
619,24000	0,19531	0,00042
619,28000	0,19995	0,00050
619,32000	0,20025	0,00050
619,36000	0,20560	0,00040
619,40000	0,21201	0,00036
619,44000	0,21410	0,00039
619,48000	0,22357	0,00047
619,52000	0,21405	0,00036
619,56000	0,21415	0,00042
619,60000	0,21390	0,00076
619,64000	0,21420	0,00038
619,68000	0,22143	0,00052
619,72000	0,21588	0,00041
619,76000	0,21481	0,00034
619,80000	0,21766	0,00023
619,84000	0,22423	0,00036
619,88000	0,22540	0,00031
619,92000	0,22525	0,00042
619,96000	0,24210	0,00046
620,00000	0,23772	0,00057
620,04000	0,25738	0,00046
620,08000	0,26181	0,00040
620,12000	0,25239	0,00044
620,16000	0,26094	0,00039
620,20000	0,26104	0,00059
620,24000	0,26868	0,00055
620,28000	0,25926	0,00046
620,32000	0,26776	0,00034
620,36000	0,26308	0,00050
620,40000	0,26002	0,00044
620,44000	0,25371	0,00059
620,48000	0,25076	0,00032
620,52000	0,25106	0,00025
620,56000	0,25840	0,00039
620,60000	0,24139	0,00034
620,64000	0,24780	0,00044
620,68000	0,23441	0,00042
620,72000	0,24709	0,00031
620,76000	0,25071	0,00042
620,80000	0,25076	0,00032
620,84000	0,24623	0,00062
620,88000	0,24114	0,00027
620,92000	0,24205	0,00036
620,96000	0,23772	0,00041
621,00000	0,24633	0,00040
621,04000	0,24231	0,00061
621,08000	0,23645	0,00042
621,12000	0,23650	0,00046
621,16000	0,24612	0,00048
621,20000	0,22800	0,00046
621,24000	0,21965	0,00048
621,28000	0,22326	0,00032
621,32000	0,21593	0,00034
621,36000	0,21232	0,00034
621,40000	0,21211	0,00042
621,44000	0,21028	0,00034
621,48000	0,22703	0,00025
621,52000	0,20651	0,00042
621,56000	0,20178	0,00020
621,60000	0,20448	0,00042
621,64000	0,21420	0,00020
621,68000	0,21410	0,00046
621,72000	0,20921	0,00052
621,76000	0,20438	0,00027
621,80000	0,21471	0,00031
621,84000	0,21685	0,00052
621,88000	0,21278	0,00034
621,92000	0,21960	0,00055
621,96000	0,21670	0,00027
622,00000	0,21685	0,00025
622,04000	0,21609	0,00042
622,08000	0,21385	0,00041
622,12000	0,21863	0,00042
622,16000	0,19908	0,00041
622,20000	0,20728	0,00052
622,24000	0,20916	0,00040
622,28000	0,20906	0,00053
622,32000	0,21201	0,00015
622,36000	0,20728	0,00041
622,40000	0,19888	0,00058
622,44000	0,21201	0,00042
622,48000	0,20539	0,00042
622,52000	0,21771	0,00036
622,56000	0,21766	0,00051
622,60000	0,21960	0,00038
622,64000	0,22525	0,00053
622,68000	0,21863	0,00036
622,72000	0,23095	0,00036
622,76000	0,22617	0,00046
622,80000	0,22825	0,00020
622,84000	0,22637	0,00036
622,88000	0,22617	0,00040
622,92000	0,22036	0,00046
622,96000	0,22260	0,00040
623,00000	0,22627	0,00042
623,04000	0,23742	0,00050
623,08000	0,22617	0,00046
623,12000	0,22510	0,00025
623,16000	0,22515	0,00040
623,20000	0,21863	0,00027
623,24000	0,22505	0,00034
623,28000	0,23151	0,00044
623,32000	0,22983	0,00042
623,36000	0,23757	0,00036
623,40000	0,24704	0,00046
623,44000	0,24689	0,00057
623,48000	0,24709	0,00050
623,52000	0,25753	0,00065
623,56000	0,26573	0,00041
623,60000	0,26389	0,00050
623,64000	0,28283	0,00039
623,68000	0,28278	0,00053
623,72000	0,28650	0,00044
623,76000	0,28655	0,00040
623,80000	0,29658	0,00046
623,84000	0,27790	0,00051
623,88000	0,29200	0,00046
623,92000	0,29123	0,00069
623,96000	0,28456	0,00041
624,00000	0,29027	0,00025
624,04000	0,29011	0,00033
624,08000	0,28742	0,00056
624,12000	0,27784	0,00044
624,16000	0,27479	0,00044
624,20000	0,28915	0,00041
624,24000	0,27520	0,00046
624,28000	0,29027	0,00041
624,32000	0,29108	0,00059
624,36000	0,29103	0,00036
624,40000	0,29704	0,00027
624,44000	0,27515	0,00036
624,48000	0,28849	0,00036
624,52000	0,27535	0,00046
624,56000	0,27978	0,00032
624,60000	0,29419	0,00046
624,64000	0,29403	0,00039
624,68000	0,28446	0,00059
624,72000	0,26939	0,00041
624,76000	0,26491	0,00038
624,80000	0,24847	0,00041
624,84000	0,24994	0,00065
624,88000	0,23070	0,00041
624,92000	0,24037	0,00041
624,96000	0,24052	0,00036
625,00000	0,23482	0,00040
625,04000	0,23482	0,00033
625,08000	0,22057	0,00033
625,12000	0,22174	0,00039
625,16000	0,22337	0,00064
625,20000	0,21502	0,00038
625,24000	0,21476	0,00046
625,28000	0,22153	0,00052
625,32000	0,22902	0,00040
625,36000	0,23284	0,00050
625,40000	0,23477	0,00041
625,44000	0,24322	0,00044
625,48000	0,23492	0,00036
625,52000	0,23492	0,00027
625,56000	0,23665	0,00023
625,60000	0,23217	0,00047
625,64000	0,22311	0,00040
625,68000	0,22428	0,00039
625,72000	0,22698	0,00033
625,76000	0,22316	0,00044
625,80000	0,22321	0,00036
625,84000	0,22347	0,00041
625,88000	0,22321	0,00027
625,92000	0,22118	0,00048
625,96000	0,21481	0,00041
626,00000	0,21843	0,00034
626,04000	0,21670	0,00036
626,08000	0,21481	0,00034
626,12000	0,21476	0,00051
626,16000	0,22927	0,00050
626,20000	0,23406	0,00038
626,24000	0,22321	0,00042
626,28000	0,22912	0,00041
626,32000	0,23095	0,00027
626,36000	0,22337	0,00050
626,40000	0,22337	0,00031
626,44000	0,22897	0,00050
626,48000	0,22912	0,00047
626,52000	0,23019	0,00041
626,56000	0,22642	0,00044
626,60000	0,23080	0,00038
626,64000	0,22627	0,00048
626,68000	0,22627	0,00042
626,72000	0,22596	0,00040
626,76000	0,21502	0,00055
626,80000	0,21863	0,00036
626,84000	0,22316	0,00044
626,88000	0,21950	0,00057
626,92000	0,21675	0,00038
626,96000	0,21782	0,00051
627,00000	0,21777	0,00050
627,04000	0,22423	0,00048
627,08000	0,21970	0,00056
627,12000	0,21130	0,00047
627,16000	0,22647	0,00040
627,20000	0,22184	0,00031
627,24000	0,22556	0,00061
627,28000	0,22520	0,00044
627,32000	0,22510	0,00047
627,36000	0,23289	0,00027
627,40000	0,22433	0,00042
627,44000	0,22133	0,00031
627,48000	0,23090	0,00032
627,52000	0,23360	0,00040
627,56000	0,24312	0,00032
627,60000	0,24327	0,00046
627,64000	0,22724	0,00050
627,68000	0,22153	0,00041
627,72000	0,22566	0,00033
627,76000	0,23034	0,00036
627,80000	0,21848	0,00034
627,84000	0,22240	0,00046
627,88000	0,22240	0,00033
627,92000	0,21945	0,00041
627,96000	0,21593	0,00041
628,00000	0,20931	0,00052
628,04000	0,21201	0,00048
628,08000	0,22342	0,00056
628,12000	0,21863	0,00042
628,16000	0,21598	0,00033
628,20000	0,21588	0,00052
628,24000	0,22077	0,00042
628,28000	0,21777	0,00031
628,32000	0,21787	0,00034
628,36000	0,21395	0,00051
628,40000	0,21588	0,00025
628,44000	0,20911	0,00044
628,48000	0,20916	0,00040
628,52000	0,20443	0,00046
628,56000	0,21023	0,00034
628,60000	0,20539	0,00042
628,64000	0,18854	0,00038
628,68000	0,18569	0,00031
628,72000	0,18864	0,00064
628,76000	0,17821	0,00052
628,80000	0,17805	0,00038
628,84000	0,17429	0,00044
628,88000	0,16858	0,00041
628,92000	0,15377	0,00034
628,96000	0,15626	0,00052
629,00000	0,15188	0,00031
629,04000	0,14618	0,00052
629,08000	0,14623	0,00040
629,12000	0,15081	0,00040
629,16000	0,14129	0,00039
629,20000	0,13661	0,00044
629,24000	0,14404	0,00041
629,28000	0,13478	0,00050
629,32000	0,12347	0,00046
629,36000	0,12322	0,00061
629,40000	0,12627	0,00047
629,44000	0,12037	0,00053
629,48000	0,11680	0,00048
629,52000	0,11110	0,00040
629,56000	0,11492	0,00031
629,60000	0,11197	0,00047
629,64000	0,10443	0,00025
629,68000	0,10448	0,00040
629,72000	0,10555	0,00050
629,76000	0,10377	0,00051
629,80000	0,10290	0,00047
629,84000	0,10189	0,00047
629,88000	0,09700	0,00046
629,92000	0,10835	0,00023
629,96000	0,10835	0,00040
630,00000	0,09695	0,00027
630,04000	0,09690	0,00038
630,08000	0,10438	0,00041
630,12000	0,09618	0,00034
630,16000	0,10097	0,00031
630,20000	0,09903	0,00064
630,24000	0,09924	0,00041
630,28000	0,09797	0,00042
630,32000	0,09802	0,00032
630,36000	0,09786	0,00046
630,40000	0,10280	0,00034
630,44000	0,08844	0,00050
630,48000	0,09506	0,00044
630,52000	0,09603	0,00036
630,56000	0,09593	0,00048
630,60000	0,09878	0,00065
630,64000	0,09990	0,00046
630,68000	0,10102	0,00027
630,72000	0,09405	0,00038
630,76000	0,10189	0,00057
630,80000	0,09807	0,00027
630,84000	0,09797	0,00048
630,88000	0,09980	0,00025
630,92000	0,09771	0,00047
630,96000	0,10117	0,00055
631,00000	0,09797	0,00036
631,04000	0,10061	0,00042
631,08000	0,09532	0,00046
631,12000	0,09415	0,00047
631,16000	0,09430	0,00033
631,20000	0,10285	0,00047
631,24000	0,10178	0,00047
631,28000	0,11197	0,00061
631,32000	0,11146	0,00025
631,36000	0,12169	0,00065
631,40000	0,12159	0,00056
631,44000	0,12159	0,00040
631,48000	0,13381	0,00040
631,52000	0,13101	0,00031
631,56000	0,13488	0,00047
631,60000	0,14496	0,00044
631,64000	0,15168	0,00047
631,68000	0,15367	0,00033
631,72000	0,15367	0,00033
631,76000	0,14893	0,00032
631,80000	0,15265	0,00033
631,84000	0,15555	0,00032
631,88000	0,15723	0,00033
631,92000	0,16716	0,00044
631,96000	0,17602	0,00031
632,00000	0,17149	0,00046
632,04000	0,17149	0,00040
632,08000	0,17235	0,00039
632,12000	0,17642	0,00032
632,16000	0,17261	0,00041
632,20000	0,17627	0,00051
632,24000	0,18691	0,00041
632,28000	0,18131	0,00041
632,32000	0,18106	0,00048
632,36000	0,18111	0,00020
632,40000	0,17541	0,00051
632,44000	0,17907	0,00050
632,48000	0,18106	0,00042
632,52000	0,16792	0,00033
632,56000	0,17327	0,00031
632,60000	0,17077	0,00048
632,64000	0,17072	0,00050
632,68000	0,16792	0,00040
632,72000	0,16207	0,00038
632,76000	0,15753	0,00027
632,80000	0,14827	0,00040
632,84000	0,14318	0,00060
632,88000	0,14796	0,00042
632,92000	0,14801	0,00064
632,96000	0,13646	0,00052
633,00000	0,13931	0,00042
633,04000	0,13503	0,00023
633,08000	0,13096	0,00051
633,12000	0,12846	0,00020
633,16000	0,11894	0,00036
633,20000	0,11864	0,00025
633,24000	0,12444	0,00027
633,28000	0,12149	0,00042
633,32000	0,11797	0,00020
633,36000	0,11696	0,00038
633,40000	0,11013	0,00038
633,44000	0,10728	0,00038
633,48000	0,10265	0,00048
633,52000	0,10275	0,00023
633,56000	0,10458	0,00036
633,60000	0,10861	0,00064
633,64000	0,09690	0,00038
633,68000	0,10301	0,00050
633,72000	0,10204	0,00015
633,76000	0,10021	0,00040
633,80000	0,10000	0,00036
633,84000	0,09980	0,00041
633,88000	0,08926	0,00038
633,92000	0,09690	0,00031
633,96000	0,09018	0,00052
634,00000	0,09588	0,00044
634,04000	0,09425	0,00057
634,08000	0,09430	0,00023
634,12000	0,09593	0,00042
634,16000	0,09236	0,00036
634,20000	0,10000	0,00036
634,24000	0,09705	0,00027
634,28000	0,09720	0,00034
634,32000	0,09618	0,00041
634,36000	0,09506	0,00038
634,40000	0,09496	0,00046
634,44000	0,09496	0,00046
634,48000	0,09980	0,00034
634,52000	0,09990	0,00046
634,56000	0,09725	0,00025
634,60000	0,09705	0,00048
634,64000	0,09781	0,00047
634,68000	0,09781	0,00041
634,72000	0,09593	0,00036
634,76000	0,09511	0,00046
634,80000	0,09048	0,00038
634,84000	0,09649	0,00046
634,88000	0,09435	0,00031
634,92000	0,09919	0,00040
634,96000	0,09985	0,00047
635,00000	0,09980	0,00041
635,04000	0,10000	0,00036
635,08000	0,09394	0,00039
635,12000	0,09629	0,00047
635,16000	0,09898	0,00042
635,20000	0,09807	0,00036
635,24000	0,09776	0,00047
635,28000	0,09797	0,00048
635,32000	0,09695	0,00036
635,36000	0,09618	0,00052
635,40000	0,09537	0,00044
635,44000	0,09985	0,00052
635,48000	0,10270	0,00050
635,52000	0,09140	0,00032
635,56000	0,09140	0,00056
635,60000	0,09532	0,00040
635,64000	0,09583	0,00033
635,68000	0,09868	0,00065
635,72000	0,10280	0,00047
635,76000	0,09313	0,00041
635,80000	0,09537	0,00059
635,84000	0,09903	0,00051
635,88000	0,09878	0,00047
635,92000	0,09629	0,00041
635,96000	0,09216	0,00041
636,00000	0,09868	0,00040
636,04000	0,09598	0,00039
636,08000	0,09995	0,00031
636,12000	0,09496	0,00046
636,16000	0,09511	0,00051
636,20000	0,09909	0,00058
636,24000	0,09247	0,00042
636,28000	0,10051	0,00036
636,32000	0,10071	0,00040
636,36000	0,10021	0,00033
636,40000	0,10031	0,00034
636,44000	0,09970	0,00097
636,48000	0,09618	0,00034
636,52000	0,09914	0,00059
636,56000	0,09903	0,00046
636,60000	0,09873	0,00047
636,64000	0,09613	0,00060
636,68000	0,09496	0,00032
636,72000	0,09995	0,00020
636,76000	0,09995	0,00050
636,80000	0,09903	0,00039
636,84000	0,09517	0,00057
636,88000	0,10087	0,00041
636,92000	0,09812	0,00044
636,96000	0,09506	0,00031
637,00000	0,09965	0,00031
637,04000	0,09990	0,00056
637,08000	0,09893	0,00044
637,12000	0,09532	0,00046
637,16000	0,09791	0,00050
637,20000	0,09720	0,00061
637,24000	0,09537	0,00038
637,28000	0,09527	0,00041
637,32000	0,09522	0,00052
637,36000	0,09496	0,00046
637,40000	0,10204	0,00036
637,44000	0,09445	0,00046
637,48000	0,10280	0,00025
637,52000	0,09883	0,00057
637,56000	0,09720	0,00034
637,60000	0,09797	0,00042
637,64000	0,09781	0,00047
637,68000	0,09888	0,00033
637,72000	0,09802	0,00039
637,76000	0,10265	0,00027
637,80000	0,10285	0,00041
637,84000	0,09812	0,00044
637,88000	0,10438	0,00041
637,92000	0,10443	0,00034
637,96000	0,11105	0,00034
638,00000	0,10637	0,00025
638,04000	0,11212	0,00023
638,08000	0,10901	0,00041
638,12000	0,11024	0,00032
638,16000	0,10942	0,00057
638,20000	0,10713	0,00053
638,24000	0,10738	0,00041
638,28000	0,11105	0,00052
638,32000	0,11309	0,00041
638,36000	0,11207	0,00034
638,40000	0,11237	0,00044
638,44000	0,11685	0,00046
638,48000	0,11217	0,00038
638,52000	0,11207	0,00025
638,56000	0,13086	0,00025
638,60000	0,12327	0,00047
638,64000	0,12902	0,00027
638,68000	0,13203	0,00055
638,72000	0,14689	0,00039
638,76000	0,13564	0,00036
638,80000	0,13926	0,00039
638,84000	0,13941	0,00040
638,88000	0,14343	0,00038
638,92000	0,15473	0,00047
638,96000	0,14990	0,00027
639,00000	0,15560	0,00070
639,04000	0,15743	0,00040
639,08000	0,16756	0,00047
639,12000	0,16767	0,00020
639,16000	0,17123	0,00031
639,20000	0,16960	0,00034
639,24000	0,17352	0,00040
639,28000	0,18197	0,00048
639,32000	0,18401	0,00027
639,36000	0,17831	0,00040
639,40000	0,17815	0,00047
639,44000	0,18671	0,00044
639,48000	0,18126	0,00034
639,52000	0,18961	0,00036
639,56000	0,19419	0,00036
639,60000	0,20906	0,00042
639,64000	0,20641	0,00027
639,68000	0,21583	0,00047
639,72000	0,21583	0,00047
639,76000	0,23080	0,00038
639,80000	0,23085	0,00027
639,84000	0,23085	0,00042
639,88000	0,25193	0,00046
639,92000	0,23559	0,00044
639,96000	0,24618	0,00051
