Raman-Spectrum _CHCl3 _aspol001.dat
27/09/2021
14:08:17
_CHCl3
_aspol0 Temp: NON
X in nm	Y Signal 	Error Signal				
560,04000	0,09710	0,00044
560,08000	0,09715	0,00040
560,12000	0,10301	0,00038
560,16000	0,09715	0,00060
560,20000	0,09608	0,00038
560,24000	0,10077	0,00034
560,28000	0,10555	0,00050
560,32000	0,10005	0,00039
560,36000	0,10000	0,00042
560,40000	0,09359	0,00046
560,44000	0,09695	0,00027
560,48000	0,10148	0,00038
560,52000	0,10662	0,00036
560,56000	0,09725	0,00057
560,60000	0,10250	0,00044
560,64000	0,09903	0,00051
560,68000	0,09909	0,00036
560,72000	0,10285	0,00041
560,76000	0,09603	0,00036
560,80000	0,09914	0,00038
560,84000	0,10005	0,00039
560,88000	0,09685	0,00023
560,92000	0,10097	0,00044
560,96000	0,10071	0,00040
561,00000	0,09909	0,00058
561,04000	0,09873	0,00034
561,08000	0,09995	0,00038
561,12000	0,09623	0,00034
561,16000	0,10010	0,00042
561,20000	0,10270	0,00050
561,24000	0,10280	0,00041
561,28000	0,09812	0,00031
561,32000	0,10082	0,00025
561,36000	0,10000	0,00036
561,40000	0,09898	0,00042
561,44000	0,09812	0,00020
561,48000	0,09883	0,00061
561,52000	0,09802	0,00032
561,56000	0,09797	0,00053
561,60000	0,09919	0,00040
561,64000	0,10183	0,00069
561,68000	0,09705	0,00042
561,72000	0,10270	0,00031
561,76000	0,10295	0,00065
561,80000	0,10280	0,00034
561,84000	0,10280	0,00041
561,88000	0,09812	0,00031
561,92000	0,10000	0,00036
561,96000	0,10372	0,00038
562,00000	0,10087	0,00047
562,04000	0,09603	0,00042
562,08000	0,09420	0,00034
562,12000	0,10270	0,00031
562,16000	0,10285	0,00034
562,20000	0,09888	0,00051
562,24000	0,09980	0,00034
562,28000	0,10173	0,00040
562,32000	0,10087	0,00025
562,36000	0,09343	0,00046
562,40000	0,10209	0,00046
562,44000	0,10173	0,00060
562,48000	0,10270	0,00038
562,52000	0,09888	0,00033
562,56000	0,09308	0,00046
562,60000	0,09909	0,00053
562,64000	0,10840	0,00034
562,68000	0,09685	0,00056
562,72000	0,09720	0,00047
562,76000	0,09898	0,00042
562,80000	0,09929	0,00041
562,84000	0,09807	0,00036
562,88000	0,09914	0,00020
562,92000	0,09914	0,00055
562,96000	0,09985	0,00052
563,00000	0,09247	0,00027
563,04000	0,09226	0,00051
563,08000	0,09588	0,00038
563,12000	0,09898	0,00042
563,16000	0,09985	0,00052
563,20000	0,09608	0,00031
563,24000	0,09903	0,00046
563,28000	0,10077	0,00047
563,32000	0,10082	0,00047
563,36000	0,09980	0,00047
563,40000	0,09812	0,00044
563,44000	0,10112	0,00048
563,48000	0,09629	0,00041
563,52000	0,09995	0,00020
563,56000	0,09700	0,00032
563,60000	0,09685	0,00040
563,64000	0,09593	0,00036
563,68000	0,09608	0,00044
563,72000	0,09725	0,00047
563,76000	0,10097	0,00050
563,80000	0,09898	0,00036
563,84000	0,09700	0,00032
563,88000	0,10189	0,00034
563,92000	0,10183	0,00025
563,96000	0,09425	0,00025
564,00000	0,10372	0,00031
564,04000	0,10428	0,00040
564,08000	0,10336	0,00047
564,12000	0,10255	0,00042
564,16000	0,09527	0,00047
564,20000	0,09506	0,00038
564,24000	0,10372	0,00038
564,28000	0,09985	0,00034
564,32000	0,10754	0,00040
564,36000	0,10077	0,00041
564,40000	0,09888	0,00033
564,44000	0,09705	0,00042
564,48000	0,09797	0,00042
564,52000	0,09802	0,00032
564,56000	0,10005	0,00039
564,60000	0,10637	0,00041
564,64000	0,09425	0,00052
564,68000	0,09888	0,00040
564,72000	0,09898	0,00053
564,76000	0,09883	0,00041
564,80000	0,09924	0,00057
564,84000	0,10576	0,00044
564,88000	0,09720	0,00041
564,92000	0,10570	0,00053
564,96000	0,10092	0,00046
565,00000	0,10535	0,00041
565,04000	0,09700	0,00023
565,08000	0,09679	0,00041
565,12000	0,09975	0,00052
565,16000	0,10066	0,00031
565,20000	0,09990	0,00046
565,24000	0,09898	0,00058
565,28000	0,09802	0,00023
565,32000	0,10275	0,00033
565,36000	0,10565	0,00046
565,40000	0,10540	0,00052
565,44000	0,10550	0,00056
565,48000	0,10097	0,00055
565,52000	0,10071	0,00033
565,56000	0,09618	0,00047
565,60000	0,10178	0,00047
565,64000	0,09985	0,00034
565,68000	0,09985	0,00061
565,72000	0,10652	0,00046
565,76000	0,10845	0,00034
565,80000	0,10657	0,00020
565,84000	0,10856	0,00046
565,88000	0,10642	0,00034
565,92000	0,10265	0,00042
565,96000	0,09802	0,00039
566,00000	0,09817	0,00056
566,04000	0,10458	0,00027
566,08000	0,09685	0,00040
566,12000	0,09995	0,00038
566,16000	0,10346	0,00040
566,20000	0,10092	0,00023
566,24000	0,10453	0,00020
566,28000	0,10443	0,00034
566,32000	0,09715	0,00046
566,36000	0,10178	0,00047
566,40000	0,10280	0,00041
566,44000	0,09903	0,00046
566,48000	0,09797	0,00015
566,52000	0,10733	0,00033
566,56000	0,10759	0,00044
566,60000	0,10189	0,00041
566,64000	0,10143	0,00033
566,68000	0,09898	0,00048
566,72000	0,10087	0,00052
566,76000	0,10372	0,00031
566,80000	0,10372	0,00044
566,84000	0,09700	0,00032
566,88000	0,09705	0,00053
566,92000	0,10586	0,00061
566,96000	0,10301	0,00038
567,00000	0,10015	0,00038
567,04000	0,09394	0,00060
567,08000	0,09695	0,00042
567,12000	0,10189	0,00034
567,16000	0,10178	0,00041
567,20000	0,10061	0,00015
567,24000	0,09802	0,00039
567,28000	0,10830	0,00020
567,32000	0,10290	0,00052
567,36000	0,10092	0,00040
567,40000	0,09511	0,00056
567,44000	0,09527	0,00052
567,48000	0,10077	0,00047
567,52000	0,10525	0,00038
567,56000	0,09791	0,00044
567,60000	0,10255	0,00036
567,64000	0,10759	0,00050
567,68000	0,09812	0,00031
567,72000	0,10270	0,00038
567,76000	0,10275	0,00033
567,80000	0,09690	0,00031
567,84000	0,10464	0,00060
567,88000	0,10077	0,00025
567,92000	0,10015	0,00031
567,96000	0,09720	0,00034
568,00000	0,09629	0,00041
568,04000	0,09629	0,00047
568,08000	0,10219	0,00020
568,12000	0,09430	0,00046
568,16000	0,09700	0,00039
568,20000	0,10010	0,00036
568,24000	0,09878	0,00034
568,28000	0,09797	0,00027
568,32000	0,10178	0,00041
568,36000	0,10199	0,00044
568,40000	0,09807	0,00036
568,44000	0,10097	0,00050
568,48000	0,10647	0,00047
568,52000	0,10382	0,00052
568,56000	0,10199	0,00038
568,60000	0,10830	0,00031
568,64000	0,10820	0,00023
568,68000	0,10000	0,00036
568,72000	0,10015	0,00031
568,76000	0,10367	0,00053
568,80000	0,09975	0,00052
568,84000	0,10097	0,00050
568,88000	0,10102	0,00027
568,92000	0,10061	0,00027
568,96000	0,10285	0,00047
569,00000	0,10550	0,00051
569,04000	0,09985	0,00025
569,08000	0,10947	0,00052
569,12000	0,10005	0,00032
569,16000	0,10443	0,00034
569,20000	0,09807	0,00036
569,24000	0,09812	0,00038
569,28000	0,09919	0,00033
569,32000	0,10000	0,00042
569,36000	0,11217	0,00038
569,40000	0,09613	0,00072
569,44000	0,10372	0,00050
569,48000	0,10290	0,00047
569,52000	0,10285	0,00034
569,56000	0,09710	0,00031
569,60000	0,10464	0,00032
569,64000	0,10163	0,00042
569,68000	0,09919	0,00046
569,72000	0,10183	0,00052
569,76000	0,10377	0,00040
569,80000	0,09802	0,00039
569,84000	0,09802	0,00056
569,88000	0,10331	0,00047
569,92000	0,10189	0,00065
569,96000	0,09598	0,00032
570,00000	0,09786	0,00023
570,04000	0,09990	0,00056
570,08000	0,09924	0,00034
570,12000	0,09914	0,00031
570,16000	0,09695	0,00027
570,20000	0,09995	0,00050
570,24000	0,10087	0,00041
570,28000	0,09903	0,00046
570,32000	0,09980	0,00057
570,36000	0,09807	0,00048
570,40000	0,09807	0,00027
570,44000	0,10000	0,00042
570,48000	0,10199	0,00044
570,52000	0,10453	0,00044
570,56000	0,10377	0,00033
570,60000	0,09985	0,00057
570,64000	0,09975	0,00052
570,68000	0,10189	0,00041
570,72000	0,10148	0,00055
570,76000	0,10362	0,00023
570,80000	0,10290	0,00047
570,84000	0,10021	0,00040
570,88000	0,09990	0,00040
570,92000	0,10077	0,00047
570,96000	0,09873	0,00052
571,00000	0,09888	0,00040
571,04000	0,10214	0,00027
571,08000	0,10005	0,00023
571,12000	0,09725	0,00047
571,16000	0,09715	0,00040
571,20000	0,09410	0,00033
571,24000	0,09781	0,00041
571,28000	0,09776	0,00034
571,32000	0,10178	0,00041
571,36000	0,10173	0,00051
571,40000	0,09807	0,00027
571,44000	0,09990	0,00046
571,48000	0,09919	0,00046
571,52000	0,09995	0,00044
571,56000	0,10087	0,00025
571,60000	0,10087	0,00034
571,64000	0,09817	0,00040
571,68000	0,09354	0,00044
571,72000	0,09909	0,00036
571,76000	0,10265	0,00042
571,80000	0,10652	0,00040
571,84000	0,09700	0,00032
571,88000	0,09674	0,00025
571,92000	0,10265	0,00015
571,96000	0,10061	0,00036
572,00000	0,09715	0,00040
572,04000	0,09812	0,00055
572,08000	0,09623	0,00034
572,12000	0,10097	0,00031
572,16000	0,09583	0,00051
572,20000	0,09603	0,00036
572,24000	0,09873	0,00052
572,28000	0,10178	0,00052
572,32000	0,09995	0,00038
572,36000	0,09975	0,00047
572,40000	0,09705	0,00048
572,44000	0,10005	0,00032
572,48000	0,10000	0,00036
572,52000	0,10285	0,00041
572,56000	0,10097	0,00031
572,60000	0,09909	0,00053
572,64000	0,09720	0,00047
572,68000	0,09797	0,00042
572,72000	0,09695	0,00027
572,76000	0,09695	0,00036
572,80000	0,09333	0,00064
572,84000	0,09878	0,00047
572,88000	0,10077	0,00041
572,92000	0,09618	0,00034
572,96000	0,09995	0,00050
573,00000	0,10178	0,00047
573,04000	0,09690	0,00031
573,08000	0,09720	0,00065
573,12000	0,10000	0,00048
573,16000	0,10087	0,00025
573,20000	0,09990	0,00040
573,24000	0,10082	0,00034
573,28000	0,09415	0,00034
573,32000	0,09720	0,00057
573,36000	0,09695	0,00053
573,40000	0,09797	0,00042
573,44000	0,09338	0,00048
573,48000	0,10652	0,00040
573,52000	0,09985	0,00025
573,56000	0,10102	0,00048
573,60000	0,10010	0,00042
573,64000	0,10377	0,00033
573,68000	0,10372	0,00055
573,72000	0,10005	0,00039
573,76000	0,09883	0,00052
573,80000	0,09990	0,00056
573,84000	0,10000	0,00036
573,88000	0,09802	0,00064
573,92000	0,10071	0,00033
573,96000	0,10077	0,00047
574,00000	0,09623	0,00034
574,04000	0,10637	0,00057
574,08000	0,09690	0,00044
574,12000	0,10092	0,00046
574,16000	0,09965	0,00038
574,20000	0,10000	0,00027
574,24000	0,09985	0,00034
574,28000	0,09919	0,00033
574,32000	0,09985	0,00041
574,36000	0,09990	0,00040
574,40000	0,10362	0,00072
574,44000	0,10005	0,00039
574,48000	0,10280	0,00041
574,52000	0,10647	0,00041
574,56000	0,10637	0,00025
574,60000	0,09613	0,00060
574,64000	0,09954	0,00046
574,68000	0,10662	0,00042
574,72000	0,10010	0,00042
574,76000	0,09593	0,00048
574,80000	0,09975	0,00034
574,84000	0,09990	0,00040
574,88000	0,10285	0,00057
574,92000	0,09802	0,00032
574,96000	0,10632	0,00051
575,00000	0,10458	0,00036
575,04000	0,10199	0,00038
575,08000	0,09980	0,00034
575,12000	0,10005	0,00032
575,16000	0,10433	0,00025
575,20000	0,10010	0,00058
575,24000	0,10346	0,00040
575,28000	0,10194	0,00051
575,32000	0,09623	0,00025
575,36000	0,10458	0,00058
575,40000	0,10270	0,00038
575,44000	0,10255	0,00036
575,48000	0,10754	0,00033
575,52000	0,10479	0,00056
575,56000	0,10000	0,00027
575,60000	0,10530	0,00046
575,64000	0,09715	0,00051
575,68000	0,10464	0,00039
575,72000	0,10464	0,00046
575,76000	0,10474	0,00020
575,80000	0,10173	0,00060
575,84000	0,10168	0,00068
575,88000	0,09995	0,00031
575,92000	0,10265	0,00027
575,96000	0,10464	0,00023
576,00000	0,10260	0,00039
576,04000	0,10280	0,00034
576,08000	0,09980	0,00047
576,12000	0,10840	0,00034
576,16000	0,10275	0,00023
576,20000	0,10464	0,00051
576,24000	0,10672	0,00053
576,28000	0,10336	0,00025
576,32000	0,10357	0,00070
576,36000	0,10525	0,00055
576,40000	0,10178	0,00041
576,44000	0,10021	0,00051
576,48000	0,10555	0,00044
576,52000	0,10733	0,00040
576,56000	0,10092	0,00046
576,60000	0,10097	0,00038
576,64000	0,10077	0,00034
576,68000	0,10178	0,00057
576,72000	0,10000	0,00042
576,76000	0,10092	0,00040
576,80000	0,09888	0,00040
576,84000	0,10183	0,00034
576,88000	0,09898	0,00036
576,92000	0,09919	0,00040
576,96000	0,10280	0,00057
577,00000	0,09990	0,00033
577,04000	0,09888	0,00033
577,08000	0,10112	0,00048
577,12000	0,09888	0,00056
577,16000	0,10265	0,00036
577,20000	0,10285	0,00034
577,24000	0,09812	0,00038
577,28000	0,09639	0,00031
577,32000	0,09333	0,00059
577,36000	0,09878	0,00025
577,40000	0,10000	0,00048
577,44000	0,09995	0,00031
577,48000	0,09791	0,00020
577,52000	0,09817	0,00033
577,56000	0,10005	0,00039
577,60000	0,10148	0,00038
577,64000	0,09903	0,00051
577,68000	0,09705	0,00027
577,72000	0,10107	0,00046
577,76000	0,10194	0,00051
577,80000	0,10183	0,00047
577,84000	0,09980	0,00041
577,88000	0,09710	0,00044
577,92000	0,10290	0,00034
577,96000	0,09791	0,00059
578,00000	0,09883	0,00065
578,04000	0,10183	0,00047
578,08000	0,10189	0,00041
578,12000	0,09995	0,00050
578,16000	0,09985	0,00052
578,20000	0,09990	0,00046
578,24000	0,09797	0,00042
578,28000	0,10295	0,00040
578,32000	0,10453	0,00020
578,36000	0,09985	0,00025
578,40000	0,09990	0,00040
578,44000	0,09893	0,00055
578,48000	0,10173	0,00056
578,52000	0,10260	0,00023
578,56000	0,10000	0,00027
578,60000	0,09618	0,00025
578,64000	0,09873	0,00025
578,68000	0,09893	0,00055
578,72000	0,10570	0,00053
578,76000	0,09634	0,00040
578,80000	0,10372	0,00031
578,84000	0,10372	0,00044
578,88000	0,10255	0,00036
578,92000	0,09883	0,00034
578,96000	0,09934	0,00052
579,00000	0,09735	0,00046
579,04000	0,09791	0,00038
579,08000	0,09909	0,00053
579,12000	0,10392	0,00041
579,16000	0,10382	0,00025
579,20000	0,09216	0,00041
579,24000	0,09522	0,00047
579,28000	0,09517	0,00052
579,32000	0,10295	0,00056
579,36000	0,10357	0,00053
579,40000	0,10061	0,00053
579,44000	0,09786	0,00056
579,48000	0,09878	0,00041
579,52000	0,10199	0,00055
579,56000	0,10163	0,00048
579,60000	0,10362	0,00051
579,64000	0,10097	0,00038
579,68000	0,10387	0,00034
579,72000	0,10026	0,00041
579,76000	0,10066	0,00031
579,80000	0,10173	0,00040
579,84000	0,09883	0,00041
579,88000	0,09893	0,00050
579,92000	0,10082	0,00041
579,96000	0,09690	0,00031
580,00000	0,10275	0,00040
580,04000	0,10077	0,00047
580,08000	0,10387	0,00047
580,12000	0,10280	0,00041
580,16000	0,10275	0,00056
580,20000	0,10102	0,00036
580,24000	0,09532	0,00040
580,28000	0,10082	0,00034
580,32000	0,09903	0,00046
580,36000	0,09919	0,00046
580,40000	0,10183	0,00041
580,44000	0,10168	0,00031
580,48000	0,10464	0,00039
580,52000	0,09791	0,00064
580,56000	0,09618	0,00034
580,60000	0,10199	0,00038
580,64000	0,10015	0,00031
580,68000	0,10275	0,00033
580,72000	0,10082	0,00034
580,76000	0,10097	0,00038
580,80000	0,10642	0,00052
580,84000	0,09995	0,00038
580,88000	0,10066	0,00044
580,92000	0,10087	0,00034
580,96000	0,10183	0,00034
581,00000	0,10194	0,00033
581,04000	0,10183	0,00041
581,08000	0,10214	0,00066
581,12000	0,10005	0,00039
581,16000	0,10362	0,00046
581,20000	0,09995	0,00059
581,24000	0,10738	0,00057
581,28000	0,10458	0,00027
581,32000	0,10550	0,00033
581,36000	0,10565	0,00051
581,40000	0,10377	0,00033
581,44000	0,10632	0,00033
581,48000	0,10173	0,00046
581,52000	0,10255	0,00058
581,56000	0,10077	0,00047
581,60000	0,10448	0,00033
581,64000	0,10438	0,00041
581,68000	0,10295	0,00040
581,72000	0,10387	0,00041
581,76000	0,10652	0,00040
581,80000	0,10066	0,00038
581,84000	0,10183	0,00047
581,88000	0,10102	0,00048
581,92000	0,10082	0,00041
581,96000	0,10000	0,00036
582,00000	0,10621	0,00036
582,04000	0,10525	0,00055
582,08000	0,10927	0,00058
582,12000	0,10260	0,00051
582,16000	0,10469	0,00036
582,20000	0,10520	0,00048
582,24000	0,10525	0,00031
582,28000	0,10647	0,00041
582,32000	0,10367	0,00027
582,36000	0,09980	0,00034
582,40000	0,11049	0,00047
582,44000	0,10178	0,00047
582,48000	0,10647	0,00057
582,52000	0,10652	0,00046
582,56000	0,10010	0,00053
582,60000	0,09990	0,00040
582,64000	0,10392	0,00034
582,68000	0,10433	0,00041
582,72000	0,09720	0,00041
582,76000	0,10850	0,00047
582,80000	0,10835	0,00056
582,84000	0,10372	0,00044
582,88000	0,10667	0,00039
582,92000	0,09679	0,00034
582,96000	0,09685	0,00051
583,00000	0,10260	0,00046
583,04000	0,09975	0,00061
583,08000	0,10021	0,00033
583,12000	0,09990	0,00056
583,16000	0,09812	0,00044
583,20000	0,10199	0,00050
583,24000	0,09720	0,00047
583,28000	0,09797	0,00042
583,32000	0,10280	0,00034
583,36000	0,09685	0,00023
583,40000	0,09700	0,00023
583,44000	0,09985	0,00047
583,48000	0,10077	0,00025
583,52000	0,10077	0,00047
583,56000	0,09761	0,00044
583,60000	0,09679	0,00034
583,64000	0,09990	0,00040
583,68000	0,09608	0,00050
583,72000	0,09593	0,00036
583,76000	0,09710	0,00044
583,80000	0,10464	0,00032
583,84000	0,10077	0,00025
583,88000	0,10107	0,00039
583,92000	0,10015	0,00031
583,96000	0,09781	0,00034
584,00000	0,09797	0,00048
584,04000	0,09893	0,00031
584,08000	0,09985	0,00047
584,12000	0,09975	0,00025
584,16000	0,10540	0,00047
584,20000	0,10005	0,00046
584,24000	0,10173	0,00046
584,28000	0,10183	0,00052
584,32000	0,10071	0,00040
584,36000	0,09893	0,00050
584,40000	0,10112	0,00048
584,44000	0,09730	0,00052
584,48000	0,09598	0,00046
584,52000	0,10092	0,00046
584,56000	0,10163	0,00074
584,60000	0,10194	0,00040
584,64000	0,09898	0,00042
584,68000	0,10194	0,00051
584,72000	0,10367	0,00062
584,76000	0,09797	0,00027
584,80000	0,09898	0,00036
584,84000	0,10133	0,00034
584,88000	0,10163	0,00048
584,92000	0,09914	0,00031
584,96000	0,10077	0,00034
585,00000	0,10071	0,00040
585,04000	0,09883	0,00025
585,08000	0,09995	0,00044
585,12000	0,10005	0,00023
585,16000	0,10642	0,00034
585,20000	0,10637	0,00057
585,24000	0,09893	0,00055
585,28000	0,09618	0,00034
585,32000	0,09542	0,00027
585,36000	0,09822	0,00052
585,40000	0,10469	0,00027
585,44000	0,09537	0,00038
585,48000	0,09517	0,00057
585,52000	0,09791	0,00044
585,56000	0,09893	0,00059
585,60000	0,10163	0,00027
585,64000	0,10382	0,00034
585,68000	0,09797	0,00042
585,72000	0,10163	0,00053
585,76000	0,10178	0,00047
585,80000	0,10438	0,00034
585,84000	0,09990	0,00060
585,88000	0,09807	0,00042
585,92000	0,09802	0,00046
585,96000	0,10550	0,00046
586,00000	0,09985	0,00025
586,04000	0,10082	0,00034
586,08000	0,10077	0,00034
586,12000	0,10178	0,00047
586,16000	0,10835	0,00051
586,20000	0,10535	0,00034
586,24000	0,10453	0,00020
586,28000	0,10097	0,00044
586,32000	0,10260	0,00056
586,36000	0,10280	0,00025
586,40000	0,10026	0,00061
586,44000	0,10448	0,00033
586,48000	0,10774	0,00042
586,52000	0,10183	0,00034
586,56000	0,10570	0,00048
586,60000	0,10728	0,00055
586,64000	0,10769	0,00046
586,68000	0,10194	0,00040
586,72000	0,10270	0,00031
586,76000	0,10458	0,00015
586,80000	0,10458	0,00027
586,84000	0,10367	0,00053
586,88000	0,10901	0,00052
586,92000	0,10301	0,00044
586,96000	0,10285	0,00025
587,00000	0,10168	0,00031
587,04000	0,10173	0,00056
587,08000	0,10545	0,00041
587,12000	0,10845	0,00052
587,16000	0,09995	0,00050
587,20000	0,10097	0,00055
587,24000	0,10082	0,00025
587,28000	0,10861	0,00031
587,32000	0,10830	0,00044
587,36000	0,10647	0,00025
587,40000	0,10189	0,00041
587,44000	0,10280	0,00034
587,48000	0,10270	0,00031
587,52000	0,09980	0,00047
587,56000	0,09980	0,00047
587,60000	0,09710	0,00031
587,64000	0,09608	0,00031
587,68000	0,10173	0,00033
587,72000	0,10448	0,00033
587,76000	0,10443	0,00047
587,80000	0,10382	0,00034
587,84000	0,10367	0,00042
587,88000	0,10372	0,00031
587,92000	0,10260	0,00032
587,96000	0,10637	0,00041
588,00000	0,09791	0,00031
588,04000	0,10632	0,00056
588,08000	0,10082	0,00047
588,12000	0,10066	0,00031
588,16000	0,10372	0,00044
588,20000	0,09903	0,00039
588,24000	0,10158	0,00046
588,28000	0,09527	0,00041
588,32000	0,09700	0,00032
588,36000	0,09909	0,00042
588,40000	0,09914	0,00050
588,44000	0,09909	0,00048
588,48000	0,09720	0,00047
588,52000	0,09608	0,00038
588,56000	0,10448	0,00033
588,60000	0,09613	0,00056
588,64000	0,09898	0,00053
588,68000	0,10077	0,00041
588,72000	0,10092	0,00040
588,76000	0,09634	0,00033
588,80000	0,09878	0,00047
588,84000	0,10280	0,00034
588,88000	0,09791	0,00038
588,92000	0,10290	0,00041
588,96000	0,09878	0,00041
589,00000	0,10306	0,00053
589,04000	0,10250	0,00031
589,08000	0,09898	0,00053
589,12000	0,09501	0,00042
589,16000	0,10071	0,00046
589,20000	0,10550	0,00051
589,24000	0,10382	0,00047
589,28000	0,09776	0,00047
589,32000	0,09802	0,00032
589,36000	0,09802	0,00032
589,40000	0,10464	0,00023
589,44000	0,10183	0,00047
589,48000	0,09501	0,00048
589,52000	0,10199	0,00050
589,56000	0,10718	0,00032
589,60000	0,10744	0,00047
589,64000	0,10005	0,00032
589,68000	0,09898	0,00036
589,72000	0,10061	0,00048
589,76000	0,10163	0,00048
589,80000	0,10250	0,00020
589,84000	0,10626	0,00038
589,88000	0,10071	0,00033
589,92000	0,10092	0,00033
589,96000	0,10285	0,00057
590,00000	0,10173	0,00033
590,04000	0,10107	0,00023
590,08000	0,10082	0,00034
590,12000	0,10448	0,00023
590,16000	0,09817	0,00040
590,20000	0,09827	0,00041
590,24000	0,10530	0,00040
590,28000	0,10453	0,00031
590,32000	0,10173	0,00046
590,36000	0,09690	0,00044
590,40000	0,10749	0,00047
590,44000	0,10560	0,00027
590,48000	0,10540	0,00025
590,52000	0,10560	0,00015
590,56000	0,10769	0,00039
590,60000	0,10367	0,00036
590,64000	0,09517	0,00034
590,68000	0,10738	0,00041
590,72000	0,10087	0,00025
590,76000	0,10138	0,00034
590,80000	0,10194	0,00046
590,84000	0,10265	0,00036
590,88000	0,09934	0,00052
590,92000	0,10458	0,00036
590,96000	0,09720	0,00034
591,00000	0,10173	0,00033
591,04000	0,10189	0,00034
591,08000	0,10194	0,00033
591,12000	0,10642	0,00034
591,16000	0,10087	0,00041
591,20000	0,09608	0,00044
591,24000	0,10733	0,00023
591,28000	0,10448	0,00033
591,32000	0,10010	0,00042
591,36000	0,10173	0,00033
591,40000	0,10178	0,00041
591,44000	0,10545	0,00034
591,48000	0,10183	0,00047
591,52000	0,09888	0,00056
591,56000	0,10540	0,00047
591,60000	0,09705	0,00042
591,64000	0,10102	0,00042
591,68000	0,10097	0,00038
591,72000	0,10331	0,00047
591,76000	0,09888	0,00023
591,80000	0,09720	0,00041
591,84000	0,09405	0,00038
591,88000	0,09629	0,00052
591,92000	0,09623	0,00041
591,96000	0,09618	0,00047
592,00000	0,10082	0,00034
592,04000	0,10183	0,00057
592,08000	0,09914	0,00038
592,12000	0,09883	0,00047
592,16000	0,09888	0,00046
592,20000	0,10362	0,00032
592,24000	0,09863	0,00050
592,28000	0,09898	0,00058
592,32000	0,10158	0,00056
592,36000	0,09903	0,00064
592,40000	0,10362	0,00023
592,44000	0,10194	0,00065
592,48000	0,10458	0,00027
592,52000	0,09598	0,00039
592,56000	0,09608	0,00044
592,60000	0,09802	0,00046
592,64000	0,10265	0,00048
592,68000	0,09791	0,00020
592,72000	0,09425	0,00061
592,76000	0,10153	0,00036
592,80000	0,09786	0,00023
592,84000	0,10087	0,00034
592,88000	0,10092	0,00033
592,92000	0,10010	0,00048
592,96000	0,10301	0,00031
593,00000	0,10280	0,00057
593,04000	0,09802	0,00023
593,08000	0,09634	0,00033
593,12000	0,10565	0,00046
593,16000	0,10509	0,00042
593,20000	0,09791	0,00038
593,24000	0,10163	0,00036
593,28000	0,09985	0,00025
593,32000	0,10545	0,00025
593,36000	0,10927	0,00036
593,40000	0,10178	0,00047
593,44000	0,10183	0,00041
593,48000	0,10367	0,00048
593,52000	0,09888	0,00056
593,56000	0,10372	0,00050
593,60000	0,09822	0,00034
593,64000	0,10000	0,00036
593,68000	0,10153	0,00058
593,72000	0,10275	0,00040
593,76000	0,10270	0,00031
593,80000	0,09527	0,00047
593,84000	0,10173	0,00033
593,88000	0,10387	0,00041
593,92000	0,09980	0,00034
593,96000	0,10280	0,00034
594,00000	0,09985	0,00047
594,04000	0,10005	0,00023
594,08000	0,09914	0,00038
594,12000	0,10840	0,00025
594,16000	0,10071	0,00033
594,20000	0,09511	0,00046
594,24000	0,09700	0,00046
594,28000	0,09506	0,00031
594,32000	0,09486	0,00050
594,36000	0,09700	0,00032
594,40000	0,09797	0,00042
594,44000	0,09985	0,00034
594,48000	0,09629	0,00041
594,52000	0,10183	0,00047
594,56000	0,09812	0,00038
594,60000	0,10458	0,00036
594,64000	0,10464	0,00032
594,68000	0,10285	0,00025
594,72000	0,09797	0,00036
594,76000	0,10464	0,00039
594,80000	0,09323	0,00057
594,84000	0,10443	0,00041
594,88000	0,10082	0,00034
594,92000	0,10066	0,00038
594,96000	0,09720	0,00052
595,00000	0,09888	0,00040
595,04000	0,10204	0,00042
595,08000	0,10285	0,00025
595,12000	0,09695	0,00042
595,16000	0,10275	0,00051
595,20000	0,09812	0,00038
595,24000	0,09802	0,00023
595,28000	0,10199	0,00020
595,32000	0,10270	0,00050
595,36000	0,09990	0,00033
595,40000	0,09985	0,00052
595,44000	0,09903	0,00056
595,48000	0,10183	0,00041
595,52000	0,10204	0,00062
595,56000	0,09333	0,00059
595,60000	0,10005	0,00039
595,64000	0,09679	0,00034
595,68000	0,09725	0,00047
595,72000	0,09817	0,00033
595,76000	0,09883	0,00034
595,80000	0,09878	0,00061
595,84000	0,09975	0,00025
595,88000	0,09893	0,00038
595,92000	0,09797	0,00036
595,96000	0,09812	0,00020
596,00000	0,10458	0,00015
596,04000	0,10000	0,00062
596,08000	0,10194	0,00040
596,12000	0,10204	0,00027
596,16000	0,10189	0,00025
596,20000	0,09623	0,00047
596,24000	0,10443	0,00025
596,28000	0,10545	0,00041
596,32000	0,10071	0,00051
596,36000	0,10250	0,00020
596,40000	0,10275	0,00040
596,44000	0,10178	0,00052
596,48000	0,10448	0,00033
596,52000	0,10000	0,00042
596,56000	0,10061	0,00027
596,60000	0,10066	0,00020
596,64000	0,10015	0,00044
596,68000	0,10280	0,00041
596,72000	0,10265	0,00042
596,76000	0,10469	0,00027
596,80000	0,10189	0,00041
596,84000	0,09812	0,00031
596,88000	0,10362	0,00032
596,92000	0,10550	0,00033
596,96000	0,10535	0,00057
597,00000	0,10535	0,00047
597,04000	0,10927	0,00042
597,08000	0,10469	0,00027
597,12000	0,10474	0,00038
597,16000	0,10362	0,00023
597,20000	0,10112	0,00048
597,24000	0,10306	0,00053
597,28000	0,10290	0,00034
597,32000	0,09965	0,00050
597,36000	0,10453	0,00031
597,40000	0,10082	0,00034
597,44000	0,10626	0,00031
597,48000	0,09980	0,00041
597,52000	0,10479	0,00051
597,56000	0,10194	0,00051
597,60000	0,10199	0,00031
597,64000	0,10189	0,00041
597,68000	0,09934	0,00057
597,72000	0,09990	0,00023
597,76000	0,10204	0,00027
597,80000	0,10713	0,00036
597,84000	0,09797	0,00042
597,88000	0,09791	0,00020
597,92000	0,10092	0,00033
597,96000	0,10723	0,00042
598,00000	0,10194	0,00033
598,04000	0,10183	0,00047
598,08000	0,10464	0,00023
598,12000	0,09985	0,00057
598,16000	0,10000	0,00036
598,20000	0,10168	0,00038
598,24000	0,10754	0,00046
598,28000	0,09985	0,00025
598,32000	0,09990	0,00023
598,36000	0,10255	0,00053
598,40000	0,10453	0,00038
598,44000	0,09781	0,00041
598,48000	0,09786	0,00033
598,52000	0,10749	0,00052
598,56000	0,09679	0,00025
598,60000	0,10917	0,00062
598,64000	0,10275	0,00023
598,68000	0,10270	0,00050
598,72000	0,10443	0,00025
598,76000	0,10458	0,00036
598,80000	0,10270	0,00059
598,84000	0,09313	0,00041
598,88000	0,10372	0,00050
598,92000	0,09623	0,00034
598,96000	0,09827	0,00041
599,00000	0,10560	0,00053
599,04000	0,10275	0,00033
599,08000	0,10270	0,00044
599,12000	0,10733	0,00033
599,16000	0,09909	0,00036
599,20000	0,10362	0,00039
599,24000	0,09827	0,00025
599,28000	0,09817	0,00040
599,32000	0,10270	0,00020
599,36000	0,10255	0,00036
599,40000	0,10357	0,00027
599,44000	0,09807	0,00027
599,48000	0,09613	0,00033
599,52000	0,10250	0,00038
599,56000	0,09980	0,00047
599,60000	0,10194	0,00040
599,64000	0,10199	0,00038
599,68000	0,10647	0,00057
599,72000	0,10097	0,00044
599,76000	0,10183	0,00041
599,80000	0,10015	0,00031
599,84000	0,10066	0,00031
599,88000	0,09802	0,00039
599,92000	0,10178	0,00052
599,96000	0,10168	0,00031
600,00000	0,09766	0,00033
600,04000	0,09791	0,00038
600,08000	0,10122	0,00046
600,12000	0,10000	0,00036
600,16000	0,10102	0,00036
600,20000	0,09980	0,00052
600,24000	0,10015	0,00031
600,28000	0,10021	0,00023
600,32000	0,10087	0,00025
600,36000	0,10474	0,00031
600,40000	0,09496	0,00023
600,44000	0,10357	0,00053
600,48000	0,09287	0,00036
600,52000	0,09883	0,00034
600,56000	0,09893	0,00038
600,60000	0,10301	0,00064
600,64000	0,09695	0,00027
600,68000	0,10087	0,00047
600,72000	0,10071	0,00023
600,76000	0,09440	0,00048
600,80000	0,10061	0,00048
600,84000	0,10071	0,00040
600,88000	0,09700	0,00032
600,92000	0,10458	0,00027
600,96000	0,10464	0,00032
601,00000	0,10346	0,00046
601,04000	0,09527	0,00034
601,08000	0,09980	0,00052
601,12000	0,10010	0,00048
601,16000	0,09517	0,00069
601,20000	0,09888	0,00046
601,24000	0,09990	0,00033
601,28000	0,10178	0,00047
601,32000	0,10183	0,00041
601,36000	0,09878	0,00034
601,40000	0,10906	0,00056
601,44000	0,10906	0,00023
601,48000	0,10265	0,00048
601,52000	0,10372	0,00038
601,56000	0,10352	0,00038
601,60000	0,09873	0,00047
601,64000	0,10555	0,00031
601,68000	0,09802	0,00046
601,72000	0,09817	0,00056
601,76000	0,10194	0,00033
601,80000	0,09914	0,00031
601,84000	0,10346	0,00046
601,88000	0,10917	0,00042
601,92000	0,09430	0,00060
601,96000	0,11024	0,00056
602,00000	0,11008	0,00040
602,04000	0,09700	0,00060
602,08000	0,09328	0,00040
602,12000	0,09903	0,00039
602,16000	0,10458	0,00036
602,20000	0,09720	0,00052
602,24000	0,10092	0,00051
602,28000	0,09735	0,00040
602,32000	0,09710	0,00044
602,36000	0,10122	0,00040
602,40000	0,10158	0,00051
602,44000	0,09883	0,00047
602,48000	0,09623	0,00034
602,52000	0,09221	0,00041
602,56000	0,10346	0,00023
602,60000	0,10362	0,00046
602,64000	0,10178	0,00034
602,68000	0,10453	0,00050
602,72000	0,10458	0,00027
602,76000	0,09435	0,00059
602,80000	0,10092	0,00023
602,84000	0,10382	0,00057
602,88000	0,10163	0,00053
602,92000	0,10178	0,00047
602,96000	0,09985	0,00025
603,00000	0,10280	0,00047
603,04000	0,10728	0,00044
603,08000	0,09695	0,00048
603,12000	0,09817	0,00051
603,16000	0,09817	0,00051
603,20000	0,09802	0,00051
603,24000	0,10010	0,00036
603,28000	0,09781	0,00052
603,32000	0,10000	0,00042
603,36000	0,10194	0,00040
603,40000	0,10830	0,00031
603,44000	0,10301	0,00044
603,48000	0,10280	0,00052
603,52000	0,10260	0,00056
603,56000	0,10372	0,00031
603,60000	0,10178	0,00052
603,64000	0,10357	0,00053
603,68000	0,10173	0,00033
603,72000	0,09802	0,00032
603,76000	0,10642	0,00034
603,80000	0,10652	0,00033
603,84000	0,10102	0,00036
603,88000	0,10555	0,00055
603,92000	0,10183	0,00052
603,96000	0,10000	0,00042
604,00000	0,10535	0,00034
604,04000	0,10280	0,00025
604,08000	0,10275	0,00023
604,12000	0,10469	0,00027
604,16000	0,10357	0,00042
604,20000	0,10087	0,00047
604,24000	0,10199	0,00044
604,28000	0,10092	0,00033
604,32000	0,10199	0,00038
604,36000	0,10021	0,00046
604,40000	0,10015	0,00031
604,44000	0,09791	0,00038
604,48000	0,10255	0,00036
604,52000	0,09893	0,00050
604,56000	0,10346	0,00040
604,60000	0,10733	0,00056
604,64000	0,10082	0,00047
604,68000	0,10077	0,00034
604,72000	0,10392	0,00034
604,76000	0,09817	0,00040
604,80000	0,10183	0,00041
604,84000	0,10107	0,00032
604,88000	0,10275	0,00040
604,92000	0,09333	0,00038
604,96000	0,09323	0,00034
605,00000	0,09318	0,00065
605,04000	0,10647	0,00034
605,08000	0,09985	0,00025
605,12000	0,10754	0,00040
605,16000	0,10178	0,00034
605,20000	0,09735	0,00046
605,24000	0,10183	0,00034
605,28000	0,10163	0,00042
605,32000	0,10280	0,00025
605,36000	0,09909	0,00036
605,40000	0,10087	0,00034
605,44000	0,09898	0,00027
605,48000	0,09354	0,00068
605,52000	0,09623	0,00025
605,56000	0,09603	0,00027
605,60000	0,10535	0,00057
605,64000	0,09781	0,00061
605,68000	0,10204	0,00048
605,72000	0,10102	0,00058
605,76000	0,10275	0,00051
605,80000	0,10520	0,00053
605,84000	0,10530	0,00051
605,88000	0,10189	0,00047
605,92000	0,09700	0,00039
605,96000	0,10077	0,00047
606,00000	0,10352	0,00031
606,04000	0,09980	0,00041
606,08000	0,10362	0,00032
606,12000	0,10092	0,00046
606,16000	0,10066	0,00031
606,20000	0,09970	0,00046
606,24000	0,10392	0,00041
606,28000	0,10178	0,00041
606,32000	0,10015	0,00038
606,36000	0,10189	0,00047
606,40000	0,10550	0,00033
606,44000	0,10565	0,00051
606,48000	0,10158	0,00039
606,52000	0,10260	0,00039
606,56000	0,10642	0,00052
606,60000	0,09883	0,00047
606,64000	0,10357	0,00027
606,68000	0,10723	0,00077
606,72000	0,10346	0,00040
606,76000	0,10397	0,00040
606,80000	0,10183	0,00034
606,84000	0,10280	0,00052
606,88000	0,10102	0,00042
606,92000	0,09873	0,00047
606,96000	0,10840	0,00041
607,00000	0,09812	0,00050
607,04000	0,09786	0,00033
607,08000	0,10458	0,00036
607,12000	0,10535	0,00041
607,16000	0,10560	0,00042
607,20000	0,09603	0,00042
607,24000	0,10280	0,00041
607,28000	0,10352	0,00044
607,32000	0,10382	0,00034
607,36000	0,10097	0,00059
607,40000	0,10280	0,00047
607,44000	0,10372	0,00044
607,48000	0,10362	0,00023
607,52000	0,10270	0,00038
607,56000	0,09501	0,00048
607,60000	0,10265	0,00062
607,64000	0,10255	0,00048
607,68000	0,10367	0,00036
607,72000	0,10183	0,00047
607,76000	0,10458	0,00036
607,80000	0,09506	0,00068
607,84000	0,10209	0,00032
607,88000	0,09888	0,00040
607,92000	0,09914	0,00050
607,96000	0,09914	0,00059
608,00000	0,10555	0,00050
608,04000	0,10270	0,00050
608,08000	0,09888	0,00033
608,12000	0,09893	0,00038
608,16000	0,10158	0,00046
608,20000	0,09695	0,00015
608,24000	0,09705	0,00027
608,28000	0,10285	0,00052
608,32000	0,09909	0,00053
608,36000	0,10275	0,00040
608,40000	0,10204	0,00048
608,44000	0,10270	0,00020
608,48000	0,09898	0,00042
608,52000	0,09888	0,00033
608,56000	0,10372	0,00038
608,60000	0,10189	0,00041
608,64000	0,10158	0,00051
608,68000	0,09501	0,00048
608,72000	0,10270	0,00038
608,76000	0,10362	0,00039
608,80000	0,10382	0,00041
608,84000	0,09888	0,00056
608,88000	0,10733	0,00051
608,92000	0,10290	0,00041
608,96000	0,10560	0,00042
609,00000	0,10092	0,00023
609,04000	0,10097	0,00038
609,08000	0,09970	0,00051
609,12000	0,09985	0,00034
609,16000	0,09613	0,00040
609,20000	0,10295	0,00040
609,24000	0,10260	0,00032
609,28000	0,10112	0,00027
609,32000	0,10270	0,00031
609,36000	0,09883	0,00047
609,40000	0,09919	0,00040
609,44000	0,10382	0,00034
609,48000	0,09629	0,00041
609,52000	0,10189	0,00041
609,56000	0,10295	0,00065
609,60000	0,09501	0,00048
609,64000	0,10357	0,00042
609,68000	0,10382	0,00057
609,72000	0,09679	0,00047
609,76000	0,09618	0,00034
609,80000	0,10372	0,00038
609,84000	0,09898	0,00070
609,88000	0,09725	0,00047
609,92000	0,10749	0,00034
609,96000	0,10316	0,00058
610,00000	0,10265	0,00036
610,04000	0,09985	0,00034
610,08000	0,09791	0,00031
610,12000	0,09720	0,00034
610,16000	0,10117	0,00044
610,20000	0,09618	0,00052
610,24000	0,10087	0,00041
610,28000	0,10077	0,00034
610,32000	0,09695	0,00027
610,36000	0,09618	0,00041
610,40000	0,10738	0,00057
610,44000	0,09817	0,00033
610,48000	0,09980	0,00057
610,52000	0,09613	0,00033
610,56000	0,09802	0,00032
610,60000	0,09771	0,00047
610,64000	0,10092	0,00033
610,68000	0,09975	0,00047
610,72000	0,10163	0,00027
610,76000	0,09893	0,00050
610,80000	0,09791	0,00050
610,84000	0,10189	0,00041
610,88000	0,10183	0,00034
610,92000	0,10005	0,00046
610,96000	0,09817	0,00040
611,00000	0,10265	0,00015
611,04000	0,09995	0,00044
611,08000	0,10535	0,00041
611,12000	0,09985	0,00057
611,16000	0,09990	0,00056
611,20000	0,09797	0,00036
611,24000	0,10448	0,00023
611,28000	0,09878	0,00041
611,32000	0,10280	0,00034
611,36000	0,10015	0,00020
611,40000	0,10290	0,00034
611,44000	0,10377	0,00040
611,48000	0,10377	0,00033
611,52000	0,09878	0,00034
611,56000	0,10092	0,00040
611,60000	0,09644	0,00015
611,64000	0,10275	0,00023
611,68000	0,10168	0,00038
611,72000	0,09618	0,00041
611,76000	0,09593	0,00053
611,80000	0,10010	0,00036
611,84000	0,10000	0,00042
611,88000	0,10015	0,00038
611,92000	0,09623	0,00041
611,96000	0,09603	0,00042
612,00000	0,10290	0,00034
612,04000	0,10173	0,00056
612,08000	0,10204	0,00036
612,12000	0,10443	0,00041
612,16000	0,09511	0,00056
612,20000	0,09990	0,00040
612,24000	0,09914	0,00055
612,28000	0,09685	0,00040
612,32000	0,10178	0,00034
612,36000	0,10194	0,00046
612,40000	0,09898	0,00062
612,44000	0,10290	0,00057
612,48000	0,10530	0,00040
612,52000	0,09771	0,00041
612,56000	0,10387	0,00034
612,60000	0,10077	0,00041
612,64000	0,10082	0,00041
612,68000	0,09990	0,00033
612,72000	0,09807	0,00036
612,76000	0,10260	0,00023
612,80000	0,09980	0,00047
612,84000	0,10010	0,00036
612,88000	0,10005	0,00023
612,92000	0,09909	0,00027
612,96000	0,09898	0,00042
613,00000	0,09410	0,00040
613,04000	0,09807	0,00042
613,08000	0,09786	0,00033
613,12000	0,09929	0,00041
613,16000	0,09898	0,00036
613,20000	0,10255	0,00036
613,24000	0,10265	0,00053
613,28000	0,10071	0,00023
613,32000	0,10723	0,00058
613,36000	0,09506	0,00044
613,40000	0,09817	0,00046
613,44000	0,10005	0,00032
613,48000	0,09517	0,00047
613,52000	0,09542	0,00042
613,56000	0,10087	0,00025
613,60000	0,10555	0,00050
613,64000	0,09807	0,00036
613,68000	0,09715	0,00023
613,72000	0,09924	0,00047
613,76000	0,10377	0,00033
613,80000	0,10642	0,00041
613,84000	0,10647	0,00025
613,88000	0,09695	0,00027
613,92000	0,10560	0,00053
613,96000	0,09990	0,00033
614,00000	0,09710	0,00044
614,04000	0,10275	0,00023
614,08000	0,10173	0,00023
614,12000	0,10183	0,00052
614,16000	0,09980	0,00025
614,20000	0,10021	0,00033
614,24000	0,10336	0,00041
614,28000	0,10270	0,00038
614,32000	0,10168	0,00050
614,36000	0,10183	0,00052
614,40000	0,10458	0,00036
614,44000	0,10453	0,00050
614,48000	0,10275	0,00023
614,52000	0,09695	0,00036
614,56000	0,09980	0,00047
614,60000	0,10469	0,00036
614,64000	0,10280	0,00034
614,68000	0,09781	0,00041
614,72000	0,09812	0,00031
614,76000	0,10087	0,00047
614,80000	0,09827	0,00052
614,84000	0,09807	0,00027
614,88000	0,10260	0,00039
614,92000	0,09797	0,00036
614,96000	0,09914	0,00044
615,00000	0,09888	0,00040
615,04000	0,09623	0,00034
615,08000	0,09705	0,00042
615,12000	0,10199	0,00038
615,16000	0,09797	0,00027
615,20000	0,09990	0,00033
615,24000	0,09481	0,00040
615,28000	0,10153	0,00036
615,32000	0,10163	0,00042
615,36000	0,10087	0,00047
615,40000	0,10285	0,00047
615,44000	0,10173	0,00040
615,48000	0,10082	0,00041
615,52000	0,10168	0,00055
615,56000	0,10265	0,00062
615,60000	0,10275	0,00046
615,64000	0,10066	0,00038
615,68000	0,09995	0,00020
615,72000	0,10082	0,00047
615,76000	0,10000	0,00042
615,80000	0,10942	0,00047
615,84000	0,09511	0,00046
615,88000	0,10382	0,00047
615,92000	0,10377	0,00056
615,96000	0,10194	0,00076
616,00000	0,09959	0,00027
616,04000	0,10178	0,00047
616,08000	0,10026	0,00025
616,12000	0,09720	0,00041
616,16000	0,10453	0,00038
616,20000	0,10464	0,00039
616,24000	0,10071	0,00046
616,28000	0,10290	0,00052
616,32000	0,09522	0,00052
616,36000	0,10270	0,00031
616,40000	0,10377	0,00033
616,44000	0,09506	0,00050
616,48000	0,09522	0,00034
616,52000	0,09883	0,00052
616,56000	0,10173	0,00033
616,60000	0,10738	0,00047
616,64000	0,10662	0,00062
616,68000	0,10092	0,00033
616,72000	0,10087	0,00034
616,76000	0,09903	0,00039
616,80000	0,09878	0,00041
616,84000	0,10280	0,00034
616,88000	0,10453	0,00031
616,92000	0,09863	0,00038
616,96000	0,10173	0,00046
617,00000	0,10932	0,00038
617,04000	0,10082	0,00034
617,08000	0,10097	0,00064
617,12000	0,10173	0,00033
617,16000	0,09807	0,00027
617,20000	0,10637	0,00052
617,24000	0,10448	0,00033
617,28000	0,10280	0,00052
617,32000	0,10321	0,00044
617,36000	0,10387	0,00034
617,40000	0,10005	0,00056
617,44000	0,10728	0,00050
617,48000	0,09898	0,00066
617,52000	0,09893	0,00044
617,56000	0,10382	0,00025
617,60000	0,10387	0,00034
617,64000	0,10112	0,00036
617,68000	0,10092	0,00033
617,72000	0,10733	0,00046
617,76000	0,11105	0,00041
617,80000	0,11115	0,00064
617,84000	0,11298	0,00041
617,88000	0,10560	0,00036
617,92000	0,10550	0,00046
617,96000	0,10535	0,00052
618,00000	0,10947	0,00052
618,04000	0,10738	0,00057
618,08000	0,11120	0,00027
618,12000	0,11609	0,00057
618,16000	0,11685	0,00032
618,20000	0,11278	0,00032
618,24000	0,10632	0,00033
618,28000	0,10642	0,00025
618,32000	0,12174	0,00047
618,36000	0,11029	0,00048
618,40000	0,10637	0,00034
618,44000	0,10993	0,00034
618,48000	0,10896	0,00034
618,52000	0,11232	0,00062
618,56000	0,11212	0,00033
618,60000	0,11181	0,00042
618,64000	0,11696	0,00031
618,68000	0,11222	0,00027
618,72000	0,11095	0,00047
618,76000	0,10815	0,00048
618,80000	0,10835	0,00033
618,84000	0,10820	0,00032
618,88000	0,10637	0,00057
618,92000	0,11390	0,00038
618,96000	0,10382	0,00034
619,00000	0,10469	0,00036
619,04000	0,10662	0,00036
619,08000	0,10932	0,00044
619,12000	0,10484	0,00041
619,16000	0,10458	0,00042
619,20000	0,10540	0,00057
619,24000	0,10194	0,00046
619,28000	0,10265	0,00053
619,32000	0,10749	0,00052
619,36000	0,09893	0,00059
619,40000	0,10178	0,00034
619,44000	0,10158	0,00039
619,48000	0,10448	0,00033
619,52000	0,10082	0,00041
619,56000	0,10749	0,00047
619,60000	0,10917	0,00048
619,64000	0,10204	0,00036
619,68000	0,10382	0,00041
619,72000	0,10759	0,00055
619,76000	0,10718	0,00039
619,80000	0,10194	0,00056
619,84000	0,10071	0,00051
619,88000	0,10550	0,00056
619,92000	0,10560	0,00048
619,96000	0,10402	0,00031
620,00000	0,10917	0,00042
620,04000	0,10922	0,00039
620,08000	0,10199	0,00044
620,12000	0,10158	0,00039
620,16000	0,10642	0,00034
620,20000	0,10071	0,00040
620,24000	0,11024	0,00032
620,28000	0,10713	0,00036
620,32000	0,10723	0,00058
620,36000	0,10647	0,00041
620,40000	0,10830	0,00044
620,44000	0,10173	0,00051
620,48000	0,10733	0,00040
620,52000	0,09990	0,00033
620,56000	0,10367	0,00048
620,60000	0,09929	0,00052
620,64000	0,09909	0,00042
620,68000	0,10102	0,00036
620,72000	0,10479	0,00040
620,76000	0,10703	0,00046
620,80000	0,10346	0,00033
620,84000	0,10163	0,00036
620,88000	0,10922	0,00032
620,92000	0,10917	0,00036
620,96000	0,10560	0,00048
621,00000	0,10066	0,00044
621,04000	0,10621	0,00048
621,08000	0,10464	0,00032
621,12000	0,10744	0,00041
621,16000	0,10464	0,00046
621,20000	0,10525	0,00099
621,24000	0,10637	0,00034
621,28000	0,10265	0,00027
621,32000	0,10825	0,00042
621,36000	0,10652	0,00040
621,40000	0,11008	0,00040
621,44000	0,11105	0,00047
621,48000	0,11314	0,00040
621,52000	0,11298	0,00052
621,56000	0,11624	0,00050
621,60000	0,11207	0,00034
621,64000	0,11614	0,00052
621,68000	0,12149	0,00036
621,72000	0,12261	0,00046
621,76000	0,12627	0,00041
621,80000	0,12673	0,00047
621,84000	0,12734	0,00041
621,88000	0,12714	0,00044
621,92000	0,13019	0,00038
621,96000	0,13753	0,00025
622,00000	0,12734	0,00047
622,04000	0,14211	0,00041
622,08000	0,14440	0,00027
622,12000	0,14435	0,00046
622,16000	0,14231	0,00051
622,20000	0,14404	0,00034
622,24000	0,14068	0,00020
622,28000	0,14124	0,00027
622,32000	0,14338	0,00036
622,36000	0,14705	0,00023
622,40000	0,14705	0,00033
622,44000	0,14893	0,00039
622,48000	0,14506	0,00041
622,52000	0,14903	0,00038
622,56000	0,15183	0,00046
622,60000	0,14043	0,00033
622,64000	0,14338	0,00036
622,68000	0,14353	0,00041
622,72000	0,14038	0,00031
622,76000	0,13768	0,00036
622,80000	0,13590	0,00034
622,84000	0,13951	0,00047
622,88000	0,13574	0,00036
622,92000	0,13182	0,00047
622,96000	0,12994	0,00033
623,00000	0,12994	0,00051
623,04000	0,13035	0,00034
623,08000	0,12337	0,00050
623,12000	0,11797	0,00044
623,16000	0,11701	0,00040
623,20000	0,11594	0,00050
623,24000	0,11217	0,00020
623,28000	0,11222	0,00027
623,32000	0,11416	0,00040
623,36000	0,11599	0,00033
623,40000	0,10738	0,00047
623,44000	0,10932	0,00050
623,48000	0,10723	0,00042
623,52000	0,10728	0,00038
623,56000	0,09990	0,00023
623,60000	0,09975	0,00041
623,64000	0,10199	0,00044
623,68000	0,09903	0,00039
623,72000	0,10077	0,00025
623,76000	0,10367	0,00042
623,80000	0,09888	0,00051
623,84000	0,10214	0,00036
623,88000	0,10189	0,00034
623,92000	0,10749	0,00025
623,96000	0,10469	0,00048
624,00000	0,10530	0,00023
624,04000	0,10189	0,00034
624,08000	0,10728	0,00050
624,12000	0,10433	0,00034
624,16000	0,10464	0,00046
624,20000	0,09995	0,00044
624,24000	0,11227	0,00046
624,28000	0,10010	0,00053
624,32000	0,10071	0,00033
624,36000	0,10479	0,00046
624,40000	0,10204	0,00058
624,44000	0,10148	0,00038
624,48000	0,10189	0,00052
624,52000	0,10458	0,00036
624,56000	0,09705	0,00053
624,60000	0,10932	0,00038
624,64000	0,09909	0,00036
624,68000	0,09898	0,00058
624,72000	0,09786	0,00033
624,76000	0,09797	0,00042
624,80000	0,10830	0,00031
624,84000	0,10066	0,00020
624,88000	0,10372	0,00031
624,92000	0,10438	0,00025
624,96000	0,10530	0,00046
625,00000	0,10331	0,00041
625,04000	0,10265	0,00027
625,08000	0,10270	0,00031
625,12000	0,10077	0,00025
625,16000	0,10632	0,00033
625,20000	0,10285	0,00041
625,24000	0,10652	0,00023
625,28000	0,10275	0,00023
625,32000	0,10377	0,00040
625,36000	0,10377	0,00046
625,40000	0,10285	0,00041
625,44000	0,10352	0,00038
625,48000	0,09883	0,00041
625,52000	0,10260	0,00032
625,56000	0,10280	0,00052
625,60000	0,09690	0,00050
625,64000	0,09715	0,00051
625,68000	0,10453	0,00038
625,72000	0,09909	0,00027
625,76000	0,10285	0,00047
625,80000	0,09990	0,00023
625,84000	0,09990	0,00046
625,88000	0,10576	0,00064
625,92000	0,10173	0,00040
625,96000	0,10178	0,00034
626,00000	0,09883	0,00034
626,04000	0,10183	0,00041
626,08000	0,10545	0,00047
626,12000	0,10082	0,00061
626,16000	0,10285	0,00047
626,20000	0,09995	0,00038
626,24000	0,10000	0,00036
626,28000	0,10484	0,00041
626,32000	0,10275	0,00046
626,36000	0,09812	0,00031
626,40000	0,10856	0,00023
626,44000	0,09695	0,00048
626,48000	0,10163	0,00036
626,52000	0,10183	0,00041
626,56000	0,09700	0,00051
626,60000	0,10642	0,00034
626,64000	0,09995	0,00059
626,68000	0,10280	0,00041
626,72000	0,10448	0,00033
626,76000	0,09980	0,00025
626,80000	0,10576	0,00055
626,84000	0,10525	0,00055
626,88000	0,10290	0,00057
626,92000	0,10438	0,00025
626,96000	0,10275	0,00033
627,00000	0,10637	0,00052
627,04000	0,10275	0,00023
627,08000	0,10367	0,00042
627,12000	0,10372	0,00038
627,16000	0,10377	0,00040
627,20000	0,10642	0,00047
627,24000	0,10464	0,00032
627,28000	0,10015	0,00050
627,32000	0,10362	0,00039
627,36000	0,10367	0,00027
627,40000	0,10825	0,00036
627,44000	0,10835	0,00033
627,48000	0,11013	0,00038
627,52000	0,10738	0,00052
627,56000	0,10850	0,00047
627,60000	0,10718	0,00039
627,64000	0,11304	0,00034
627,68000	0,10830	0,00038
627,72000	0,10820	0,00039
627,76000	0,11309	0,00034
627,80000	0,10453	0,00038
627,84000	0,11685	0,00046
627,88000	0,11115	0,00038
627,92000	0,11777	0,00038
627,96000	0,10525	0,00020
628,00000	0,10525	0,00031
628,04000	0,11859	0,00025
628,08000	0,11039	0,00046
628,12000	0,11212	0,00056
628,16000	0,10917	0,00027
628,20000	0,11874	0,00033
628,24000	0,11675	0,00031
628,28000	0,10642	0,00052
628,32000	0,10642	0,00034
628,36000	0,10901	0,00047
628,40000	0,11217	0,00044
628,44000	0,11685	0,00032
628,48000	0,11792	0,00036
628,52000	0,11599	0,00040
628,56000	0,11278	0,00046
628,60000	0,11293	0,00033
628,64000	0,11298	0,00034
628,68000	0,12149	0,00042
628,72000	0,11691	0,00048
628,76000	0,11334	0,00027
628,80000	0,11716	0,00034
628,84000	0,11808	0,00041
628,88000	0,11981	0,00031
628,92000	0,11991	0,00039
628,96000	0,11502	0,00025
629,00000	0,11013	0,00020
629,04000	0,11120	0,00048
629,08000	0,11120	0,00048
629,12000	0,11675	0,00031
629,16000	0,11309	0,00052
629,20000	0,11278	0,00023
629,24000	0,11385	0,00048
629,28000	0,11314	0,00046
629,32000	0,10932	0,00044
629,36000	0,10835	0,00046
629,40000	0,10825	0,00027
629,44000	0,10744	0,00041
629,48000	0,10749	0,00041
629,52000	0,10912	0,00031
629,56000	0,10840	0,00041
629,60000	0,10464	0,00023
629,64000	0,10626	0,00031
629,68000	0,10163	0,00053
629,72000	0,10346	0,00040
629,76000	0,11202	0,00034
629,80000	0,11197	0,00052
629,84000	0,10581	0,00065
629,88000	0,10377	0,00033
629,92000	0,09797	0,00027
629,96000	0,10107	0,00046
630,00000	0,09970	0,00056
630,04000	0,10560	0,00066
630,08000	0,10530	0,00051
630,12000	0,10448	0,00033
630,16000	0,10352	0,00055
630,20000	0,10285	0,00025
630,24000	0,09812	0,00038
630,28000	0,09527	0,00025
630,32000	0,09634	0,00051
630,36000	0,09634	0,00040
630,40000	0,10352	0,00038
630,44000	0,10000	0,00042
630,48000	0,09797	0,00027
630,52000	0,10082	0,00034
630,56000	0,10071	0,00051
630,60000	0,09807	0,00036
630,64000	0,10077	0,00041
630,68000	0,10082	0,00041
630,72000	0,10010	0,00048
630,76000	0,09410	0,00046
630,80000	0,10112	0,00048
630,84000	0,09985	0,00041
630,88000	0,10087	0,00047
630,92000	0,09995	0,00031
630,96000	0,09990	0,00046
631,00000	0,10194	0,00033
631,04000	0,09893	0,00020
631,08000	0,10173	0,00040
631,12000	0,10077	0,00034
631,16000	0,10352	0,00038
631,20000	0,09608	0,00044
631,24000	0,09791	0,00038
631,28000	0,09776	0,00034
631,32000	0,10000	0,00048
631,36000	0,10830	0,00031
631,40000	0,10026	0,00025
631,44000	0,10387	0,00047
631,48000	0,10311	0,00032
631,52000	0,10835	0,00033
631,56000	0,10825	0,00036
631,60000	0,10474	0,00038
631,64000	0,10362	0,00046
631,68000	0,10560	0,00042
631,72000	0,10906	0,00060
631,76000	0,10545	0,00034
631,80000	0,10535	0,00025
631,84000	0,10530	0,00023
631,88000	0,10850	0,00041
631,92000	0,11217	0,00020
631,96000	0,11416	0,00046
632,00000	0,10815	0,00036
632,04000	0,11584	0,00060
632,08000	0,11594	0,00038
632,12000	0,11848	0,00044
632,16000	0,11879	0,00031
632,20000	0,11405	0,00041
632,24000	0,12062	0,00047
632,28000	0,12602	0,00039
632,32000	0,11777	0,00044
632,36000	0,12245	0,00032
632,40000	0,11884	0,00042
632,44000	0,11869	0,00034
632,48000	0,12149	0,00042
632,52000	0,11614	0,00047
632,56000	0,11680	0,00042
632,60000	0,12169	0,00041
632,64000	0,12363	0,00040
632,68000	0,11874	0,00033
632,72000	0,12159	0,00040
632,76000	0,12164	0,00041
632,80000	0,11767	0,00034
632,84000	0,12541	0,00050
632,88000	0,11803	0,00040
632,92000	0,12083	0,00038
632,96000	0,11787	0,00032
633,00000	0,10952	0,00034
633,04000	0,10927	0,00066
633,08000	0,11614	0,00034
633,12000	0,11411	0,00025
633,16000	0,11395	0,00046
633,20000	0,10835	0,00046
633,24000	0,11482	0,00039
633,28000	0,10815	0,00042
633,32000	0,10850	0,00034
633,36000	0,10372	0,00038
633,40000	0,10280	0,00041
633,44000	0,10464	0,00039
633,48000	0,10204	0,00048
633,52000	0,10352	0,00044
633,56000	0,10820	0,00023
633,60000	0,10168	0,00055
633,64000	0,10189	0,00041
633,68000	0,09975	0,00041
633,72000	0,09975	0,00025
633,76000	0,09888	0,00060
633,80000	0,10367	0,00042
633,84000	0,10377	0,00033
633,88000	0,10728	0,00059
633,92000	0,10749	0,00041
633,96000	0,10285	0,00025
634,00000	0,09807	0,00036
634,04000	0,10474	0,00038
634,08000	0,09883	0,00041
634,12000	0,09985	0,00025
634,16000	0,10066	0,00020
634,20000	0,10051	0,00027
634,24000	0,09700	0,00039
634,28000	0,09725	0,00034
634,32000	0,10250	0,00031
634,36000	0,10367	0,00062
634,40000	0,09608	0,00044
634,44000	0,09679	0,00047
634,48000	0,09893	0,00031
634,52000	0,09914	0,00044
634,56000	0,10377	0,00046
634,60000	0,10550	0,00046
634,64000	0,10087	0,00057
634,68000	0,09593	0,00027
634,72000	0,09791	0,00038
634,76000	0,10183	0,00034
634,80000	0,10183	0,00034
634,84000	0,10341	0,00034
634,88000	0,10010	0,00058
634,92000	0,09883	0,00061
634,96000	0,10260	0,00032
635,00000	0,10290	0,00041
635,04000	0,10377	0,00040
635,08000	0,09705	0,00058
635,12000	0,09720	0,00047
635,16000	0,10285	0,00034
635,20000	0,09690	0,00059
635,24000	0,09903	0,00060
635,28000	0,10458	0,00027
635,32000	0,10000	0,00036
635,36000	0,10265	0,00027
635,40000	0,10280	0,00034
635,44000	0,10285	0,00047
635,48000	0,09715	0,00023
635,52000	0,09985	0,00041
635,56000	0,10581	0,00060
635,60000	0,10010	0,00048
635,64000	0,10825	0,00042
635,68000	0,10830	0,00038
635,72000	0,09995	0,00044
635,76000	0,10520	0,00048
635,80000	0,09878	0,00034
635,84000	0,09995	0,00031
635,88000	0,09903	0,00032
635,92000	0,10469	0,00042
635,96000	0,10015	0,00038
636,00000	0,09995	0,00044
636,04000	0,10637	0,00025
636,08000	0,09700	0,00046
636,12000	0,10183	0,00041
636,16000	0,09705	0,00042
636,20000	0,10357	0,00053
636,24000	0,09893	0,00050
636,28000	0,09924	0,00041
636,32000	0,10657	0,00031
636,36000	0,09822	0,00034
636,40000	0,10453	0,00068
636,44000	0,10270	0,00031
636,48000	0,09965	0,00044
636,52000	0,10005	0,00039
636,56000	0,10082	0,00025
636,60000	0,10127	0,00041
636,64000	0,10173	0,00051
636,68000	0,09898	0,00066
636,72000	0,10204	0,00042
636,76000	0,10092	0,00040
636,80000	0,10387	0,00034
636,84000	0,09898	0,00042
636,88000	0,09944	0,00044
636,92000	0,10000	0,00036
636,96000	0,09827	0,00052
637,00000	0,09511	0,00033
637,04000	0,10285	0,00034
637,08000	0,10178	0,00041
637,12000	0,10754	0,00060
637,16000	0,10728	0,00050
637,20000	0,09898	0,00036
637,24000	0,09690	0,00031
637,28000	0,09888	0,00040
637,32000	0,09705	0,00036
637,36000	0,10163	0,00048
637,40000	0,09985	0,00034
637,44000	0,10647	0,00025
637,48000	0,10657	0,00038
637,52000	0,09985	0,00041
637,56000	0,09679	0,00041
637,60000	0,10464	0,00032
637,64000	0,10443	0,00034
637,68000	0,10087	0,00041
637,72000	0,10173	0,00040
637,76000	0,10173	0,00033
637,80000	0,11390	0,00055
637,84000	0,09786	0,00040
637,88000	0,10560	0,00042
637,92000	0,09705	0,00036
637,96000	0,10183	0,00047
638,00000	0,10010	0,00036
638,04000	0,10000	0,00027
638,08000	0,10199	0,00044
638,12000	0,10194	0,00046
638,16000	0,10066	0,00031
638,20000	0,10092	0,00040
638,24000	0,10550	0,00033
638,28000	0,10738	0,00041
638,32000	0,09700	0,00056
638,36000	0,09674	0,00034
638,40000	0,10270	0,00031
638,44000	0,10372	0,00031
638,48000	0,10448	0,00033
638,52000	0,10912	0,00020
638,56000	0,10932	0,00059
638,60000	0,10367	0,00048
638,64000	0,10367	0,00042
638,68000	0,10901	0,00034
638,72000	0,10005	0,00039
638,76000	0,10077	0,00025
638,80000	0,09888	0,00040
638,84000	0,10071	0,00023
638,88000	0,10458	0,00042
638,92000	0,10189	0,00047
638,96000	0,10214	0,00027
639,00000	0,09802	0,00032
639,04000	0,10092	0,00056
639,08000	0,10209	0,00023
639,12000	0,10560	0,00042
639,16000	0,10173	0,00051
639,20000	0,09883	0,00047
639,24000	0,09929	0,00034
639,28000	0,09970	0,00046
639,32000	0,10260	0,00039
639,36000	0,10362	0,00046
639,40000	0,10285	0,00052
639,44000	0,10270	0,00044
639,48000	0,10005	0,00046
639,52000	0,10015	0,00050
639,56000	0,09812	0,00050
639,60000	0,10932	0,00055
639,64000	0,10535	0,00041
639,68000	0,11146	0,00047
639,72000	0,10576	0,00038
639,76000	0,10168	0,00044
639,80000	0,11115	0,00050
639,84000	0,11095	0,00034
639,88000	0,10458	0,00048
639,92000	0,10178	0,00047
639,96000	0,10173	0,00033
