Raman-Spectrum _CHCl3 _spol001.dat
27/09/2021
13:47:25
_CHCl3
_spol0 Temp: NON
X in nm	Y Signal 	Error Signal				
560,04000	0,10102	0,00027
560,08000	0,09425	0,00034
560,12000	0,09893	0,00044
560,16000	0,09695	0,00042
560,20000	0,09603	0,00066
560,24000	0,10163	0,00053
560,28000	0,10153	0,00042
560,32000	0,10153	0,00042
560,36000	0,09430	0,00033
560,40000	0,09629	0,00041
560,44000	0,10005	0,00046
560,48000	0,10010	0,00036
560,52000	0,10387	0,00041
560,56000	0,09710	0,00031
560,60000	0,09700	0,00032
560,64000	0,09817	0,00023
560,68000	0,09980	0,00034
560,72000	0,09613	0,00033
560,76000	0,10474	0,00038
560,80000	0,09893	0,00050
560,84000	0,09537	0,00038
560,88000	0,09522	0,00025
560,92000	0,10092	0,00023
560,96000	0,09822	0,00065
561,00000	0,09735	0,00056
561,04000	0,09797	0,00036
561,08000	0,09888	0,00051
561,12000	0,09608	0,00038
561,16000	0,09613	0,00033
561,20000	0,09338	0,00048
561,24000	0,09878	0,00057
561,28000	0,09613	0,00033
561,32000	0,09410	0,00040
561,36000	0,09303	0,00044
561,40000	0,09506	0,00038
561,44000	0,09603	0,00036
561,48000	0,09629	0,00041
561,52000	0,09430	0,00051
561,56000	0,09623	0,00047
561,60000	0,09517	0,00034
561,64000	0,10178	0,00052
561,68000	0,09827	0,00047
561,72000	0,09613	0,00023
561,76000	0,09598	0,00032
561,80000	0,10560	0,00053
561,84000	0,09791	0,00038
561,88000	0,09878	0,00047
561,92000	0,10168	0,00055
561,96000	0,09695	0,00027
562,00000	0,09532	0,00023
562,04000	0,09501	0,00053
562,08000	0,09725	0,00047
562,12000	0,09695	0,00053
562,16000	0,09511	0,00033
562,20000	0,09338	0,00042
562,24000	0,09537	0,00031
562,28000	0,09893	0,00050
562,32000	0,09705	0,00027
562,36000	0,09690	0,00031
562,40000	0,09903	0,00032
562,44000	0,09720	0,00041
562,48000	0,09618	0,00041
562,52000	0,09812	0,00020
562,56000	0,09542	0,00042
562,60000	0,09165	0,00041
562,64000	0,09155	0,00040
562,68000	0,10357	0,00048
562,72000	0,09791	0,00031
562,76000	0,09868	0,00046
562,80000	0,10082	0,00034
562,84000	0,10087	0,00025
562,88000	0,09791	0,00031
562,92000	0,10097	0,00055
562,96000	0,10092	0,00023
563,00000	0,09618	0,00025
563,04000	0,10464	0,00023
563,08000	0,09705	0,00048
563,12000	0,09903	0,00051
563,16000	0,09903	0,00060
563,20000	0,09898	0,00053
563,24000	0,09914	0,00044
563,28000	0,09802	0,00046
563,32000	0,10082	0,00047
563,36000	0,09903	0,00068
563,40000	0,09990	0,00046
563,44000	0,09506	0,00044
563,48000	0,09623	0,00034
563,52000	0,09613	0,00040
563,56000	0,09481	0,00046
563,60000	0,09430	0,00023
563,64000	0,10077	0,00025
563,68000	0,09618	0,00025
563,72000	0,10204	0,00036
563,76000	0,09608	0,00031
563,80000	0,09420	0,00034
563,84000	0,09420	0,00047
563,88000	0,09807	0,00036
563,92000	0,09323	0,00047
563,96000	0,09135	0,00027
564,00000	0,09797	0,00036
564,04000	0,09216	0,00041
564,08000	0,09786	0,00051
564,12000	0,09812	0,00038
564,16000	0,10194	0,00046
564,20000	0,10265	0,00015
564,24000	0,09613	0,00060
564,28000	0,09995	0,00044
564,32000	0,09613	0,00023
564,36000	0,09858	0,00042
564,40000	0,10285	0,00034
564,44000	0,10250	0,00031
564,48000	0,10077	0,00034
564,52000	0,09914	0,00050
564,56000	0,10194	0,00033
564,60000	0,09435	0,00038
564,64000	0,10453	0,00038
564,68000	0,09995	0,00031
564,72000	0,09995	0,00031
564,76000	0,10071	0,00046
564,80000	0,09486	0,00031
564,84000	0,09629	0,00025
564,88000	0,10168	0,00044
564,92000	0,09812	0,00031
564,96000	0,09985	0,00041
565,00000	0,09985	0,00034
565,04000	0,10107	0,00039
565,08000	0,10010	0,00027
565,12000	0,10092	0,00046
565,16000	0,10458	0,00036
565,20000	0,10173	0,00046
565,24000	0,09807	0,00042
565,28000	0,10178	0,00034
565,32000	0,10163	0,00048
565,36000	0,10453	0,00031
565,40000	0,09893	0,00044
565,44000	0,10021	0,00051
565,48000	0,09537	0,00038
565,52000	0,10443	0,00034
565,56000	0,09817	0,00040
565,60000	0,09827	0,00034
565,64000	0,10367	0,00042
565,68000	0,09797	0,00048
565,72000	0,10265	0,00048
565,76000	0,10153	0,00042
565,80000	0,10652	0,00033
565,84000	0,10005	0,00023
565,88000	0,09980	0,00041
565,92000	0,09735	0,00033
565,96000	0,09995	0,00044
566,00000	0,10092	0,00033
566,04000	0,10066	0,00031
566,08000	0,09145	0,00036
566,12000	0,09613	0,00060
566,16000	0,09786	0,00046
566,20000	0,09812	0,00020
566,24000	0,10087	0,00052
566,28000	0,09425	0,00034
566,32000	0,09517	0,00034
566,36000	0,09898	0,00027
566,40000	0,09807	0,00042
566,44000	0,09578	0,00057
566,48000	0,09613	0,00033
566,52000	0,09888	0,00056
566,56000	0,09893	0,00038
566,60000	0,09608	0,00020
566,64000	0,10285	0,00034
566,68000	0,09914	0,00055
566,72000	0,09919	0,00033
566,76000	0,09725	0,00052
566,80000	0,09695	0,00027
566,84000	0,09797	0,00036
566,88000	0,09898	0,00042
566,92000	0,09888	0,00040
566,96000	0,09807	0,00042
567,00000	0,10061	0,00048
567,04000	0,10362	0,00032
567,08000	0,10367	0,00048
567,12000	0,09700	0,00046
567,16000	0,10290	0,00034
567,20000	0,09517	0,00025
567,24000	0,09629	0,00025
567,28000	0,09425	0,00041
567,32000	0,09791	0,00031
567,36000	0,09802	0,00032
567,40000	0,10005	0,00032
567,44000	0,09695	0,00042
567,48000	0,09629	0,00052
567,52000	0,09995	0,00031
567,56000	0,09781	0,00034
567,60000	0,09043	0,00048
567,64000	0,09629	0,00041
567,68000	0,09588	0,00031
567,72000	0,09679	0,00034
567,76000	0,09399	0,00042
567,80000	0,09990	0,00046
567,84000	0,09903	0,00056
567,88000	0,10005	0,00046
567,92000	0,09405	0,00055
567,96000	0,09415	0,00041
568,00000	0,09888	0,00033
568,04000	0,10015	0,00020
568,08000	0,09995	0,00044
568,12000	0,09903	0,00039
568,16000	0,09817	0,00033
568,20000	0,10015	0,00044
568,24000	0,09934	0,00076
568,28000	0,09883	0,00041
568,32000	0,09985	0,00034
568,36000	0,09817	0,00033
568,40000	0,09415	0,00034
568,44000	0,09985	0,00025
568,48000	0,09695	0,00027
568,52000	0,10377	0,00033
568,56000	0,10367	0,00042
568,60000	0,10173	0,00040
568,64000	0,10189	0,00034
568,68000	0,09802	0,00046
568,72000	0,09695	0,00027
568,76000	0,09435	0,00038
568,80000	0,09603	0,00053
568,84000	0,09598	0,00051
568,88000	0,10367	0,00027
568,92000	0,09715	0,00040
568,96000	0,10311	0,00060
569,00000	0,09629	0,00041
569,04000	0,09812	0,00031
569,08000	0,09990	0,00046
569,12000	0,09990	0,00033
569,16000	0,09975	0,00047
569,20000	0,09817	0,00046
569,24000	0,09730	0,00065
569,28000	0,09807	0,00036
569,32000	0,09623	0,00034
569,36000	0,09995	0,00038
569,40000	0,10173	0,00033
569,44000	0,10214	0,00048
569,48000	0,09613	0,00033
569,52000	0,09333	0,00038
569,56000	0,09399	0,00048
569,60000	0,10092	0,00033
569,64000	0,09898	0,00048
569,68000	0,10077	0,00041
569,72000	0,10087	0,00041
569,76000	0,09226	0,00033
569,80000	0,09985	0,00034
569,84000	0,10306	0,00053
569,88000	0,10178	0,00065
569,92000	0,09135	0,00048
569,96000	0,09710	0,00031
570,00000	0,09970	0,00051
570,04000	0,09995	0,00038
570,08000	0,10199	0,00055
570,12000	0,09674	0,00034
570,16000	0,09761	0,00050
570,20000	0,09995	0,00050
570,24000	0,09802	0,00032
570,28000	0,09771	0,00041
570,32000	0,09817	0,00040
570,36000	0,09140	0,00051
570,40000	0,10077	0,00047
570,44000	0,09791	0,00055
570,48000	0,09715	0,00040
570,52000	0,09883	0,00057
570,56000	0,09532	0,00033
570,60000	0,09690	0,00031
570,64000	0,09720	0,00047
570,68000	0,09639	0,00031
570,72000	0,09593	0,00058
570,76000	0,10010	0,00027
570,80000	0,09705	0,00058
570,84000	0,09425	0,00052
570,88000	0,09883	0,00047
570,92000	0,09888	0,00056
570,96000	0,09914	0,00050
571,00000	0,10082	0,00034
571,04000	0,09608	0,00055
571,08000	0,09807	0,00027
571,12000	0,10097	0,00038
571,16000	0,09766	0,00046
571,20000	0,09817	0,00040
571,24000	0,09527	0,00052
571,28000	0,10082	0,00034
571,32000	0,09527	0,00052
571,36000	0,09898	0,00062
571,40000	0,09455	0,00020
571,44000	0,10270	0,00038
571,48000	0,09695	0,00027
571,52000	0,09705	0,00036
571,56000	0,09898	0,00048
571,60000	0,09797	0,00042
571,64000	0,10265	0,00027
571,68000	0,09608	0,00020
571,72000	0,10102	0,00036
571,76000	0,10097	0,00050
571,80000	0,10092	0,00023
571,84000	0,10021	0,00023
571,88000	0,09802	0,00051
571,92000	0,09995	0,00038
571,96000	0,09878	0,00041
572,00000	0,09797	0,00042
572,04000	0,09878	0,00025
572,08000	0,09909	0,00036
572,12000	0,10626	0,00031
572,16000	0,09685	0,00051
572,20000	0,09318	0,00034
572,24000	0,09883	0,00047
572,28000	0,09980	0,00025
572,32000	0,09629	0,00047
572,36000	0,09822	0,00025
572,40000	0,09776	0,00034
572,44000	0,10652	0,00033
572,48000	0,09995	0,00044
572,52000	0,09700	0,00046
572,56000	0,09730	0,00061
572,60000	0,09598	0,00023
572,64000	0,10652	0,00056
572,68000	0,10657	0,00038
572,72000	0,09695	0,00036
572,76000	0,10005	0,00032
572,80000	0,09440	0,00036
572,84000	0,09888	0,00040
572,88000	0,09878	0,00041
572,92000	0,09231	0,00038
572,96000	0,09995	0,00038
573,00000	0,09975	0,00047
573,04000	0,09634	0,00040
573,08000	0,10102	0,00042
573,12000	0,09140	0,00039
573,16000	0,10265	0,00027
573,20000	0,09914	0,00044
573,24000	0,09903	0,00046
573,28000	0,09898	0,00053
573,32000	0,09720	0,00052
573,36000	0,09888	0,00056
573,40000	0,10092	0,00033
573,44000	0,09914	0,00050
573,48000	0,10280	0,00041
573,52000	0,09522	0,00025
573,56000	0,09527	0,00052
573,60000	0,09715	0,00056
573,64000	0,10265	0,00042
573,68000	0,10173	0,00046
573,72000	0,09954	0,00046
573,76000	0,10270	0,00031
573,80000	0,10178	0,00041
573,84000	0,09893	0,00038
573,88000	0,09883	0,00057
573,92000	0,09705	0,00027
573,96000	0,09741	0,00038
574,00000	0,09170	0,00034
574,04000	0,10163	0,00036
574,08000	0,10077	0,00034
574,12000	0,09313	0,00052
574,16000	0,09333	0,00044
574,20000	0,10102	0,00042
574,24000	0,09511	0,00065
574,28000	0,10474	0,00038
574,32000	0,09786	0,00033
574,36000	0,10021	0,00040
574,40000	0,09817	0,00051
574,44000	0,10275	0,00033
574,48000	0,10285	0,00025
574,52000	0,10097	0,00050
574,56000	0,10275	0,00033
574,60000	0,09791	0,00050
574,64000	0,10377	0,00033
574,68000	0,09618	0,00041
574,72000	0,09705	0,00036
574,76000	0,09685	0,00033
574,80000	0,10204	0,00027
574,84000	0,09980	0,00041
574,88000	0,10260	0,00056
574,92000	0,09822	0,00034
574,96000	0,10570	0,00036
575,00000	0,09914	0,00055
575,04000	0,09888	0,00040
575,08000	0,10275	0,00051
575,12000	0,10082	0,00025
575,16000	0,09618	0,00034
575,20000	0,09695	0,00027
575,24000	0,10082	0,00047
575,28000	0,09537	0,00031
575,32000	0,10362	0,00032
575,36000	0,10387	0,00025
575,40000	0,10000	0,00053
575,44000	0,10362	0,00032
575,48000	0,09995	0,00031
575,52000	0,09893	0,00031
575,56000	0,10840	0,00034
575,60000	0,10652	0,00060
575,64000	0,10621	0,00042
575,68000	0,10178	0,00025
575,72000	0,10163	0,00062
575,76000	0,10071	0,00023
575,80000	0,09903	0,00060
575,84000	0,09995	0,00020
575,88000	0,10010	0,00042
575,92000	0,10000	0,00048
575,96000	0,10178	0,00057
576,00000	0,10077	0,00034
576,04000	0,10367	0,00042
576,08000	0,10133	0,00025
576,12000	0,10474	0,00038
576,16000	0,10097	0,00044
576,20000	0,10163	0,00042
576,24000	0,10173	0,00033
576,28000	0,10168	0,00044
576,32000	0,09995	0,00055
576,36000	0,10443	0,00034
576,40000	0,10647	0,00025
576,44000	0,10377	0,00033
576,48000	0,10092	0,00033
576,52000	0,10056	0,00046
576,56000	0,09634	0,00046
576,60000	0,10087	0,00052
576,64000	0,10087	0,00034
576,68000	0,10749	0,00025
576,72000	0,09634	0,00051
576,76000	0,10362	0,00039
576,80000	0,09598	0,00039
576,84000	0,09613	0,00033
576,88000	0,10000	0,00027
576,92000	0,09720	0,00025
576,96000	0,10077	0,00025
577,00000	0,09822	0,00034
577,04000	0,09532	0,00040
577,08000	0,09685	0,00023
577,12000	0,09746	0,00036
577,16000	0,09700	0,00051
577,20000	0,09613	0,00040
577,24000	0,09135	0,00036
577,28000	0,09903	0,00060
577,32000	0,09725	0,00041
577,36000	0,09995	0,00050
577,40000	0,09995	0,00038
577,44000	0,10087	0,00034
577,48000	0,09705	0,00053
577,52000	0,10270	0,00044
577,56000	0,10469	0,00027
577,60000	0,10723	0,00036
577,64000	0,09634	0,00040
577,68000	0,09720	0,00052
577,72000	0,09710	0,00038
577,76000	0,10082	0,00041
577,80000	0,09975	0,00041
577,84000	0,09705	0,00036
577,88000	0,09425	0,00034
577,92000	0,09705	0,00042
577,96000	0,09634	0,00046
578,00000	0,09608	0,00055
578,04000	0,09425	0,00057
578,08000	0,10000	0,00042
578,12000	0,09476	0,00052
578,16000	0,09618	0,00041
578,20000	0,09822	0,00034
578,24000	0,09797	0,00042
578,28000	0,10464	0,00039
578,32000	0,10443	0,00025
578,36000	0,10005	0,00039
578,40000	0,09903	0,00032
578,44000	0,10219	0,00031
578,48000	0,09888	0,00056
578,52000	0,09690	0,00031
578,56000	0,10097	0,00020
578,60000	0,10066	0,00038
578,64000	0,09695	0,00036
578,68000	0,09878	0,00041
578,72000	0,09318	0,00047
578,76000	0,09522	0,00041
578,80000	0,09817	0,00033
578,84000	0,09435	0,00038
578,88000	0,09435	0,00038
578,92000	0,10270	0,00044
578,96000	0,10021	0,00056
579,00000	0,09333	0,00050
579,04000	0,10005	0,00046
579,08000	0,10173	0,00051
579,12000	0,10117	0,00038
579,16000	0,09776	0,00047
579,20000	0,09807	0,00027
579,24000	0,10071	0,00023
579,28000	0,10005	0,00046
579,32000	0,09333	0,00059
579,36000	0,09695	0,00036
579,40000	0,09425	0,00025
579,44000	0,09608	0,00031
579,48000	0,09623	0,00025
579,52000	0,09802	0,00039
579,56000	0,10005	1,38778E-17
579,60000	0,09430	0,00023
579,64000	0,09618	0,00057
579,68000	0,10061	0,00048
579,72000	0,10000	0,00036
579,76000	0,10000	0,00048
579,80000	0,09990	0,00046
579,84000	0,10183	0,00047
579,88000	0,09802	0,00032
579,92000	0,09781	0,00034
579,96000	0,10189	0,00041
580,00000	0,10178	0,00034
580,04000	0,09710	0,00044
580,08000	0,09725	0,00061
580,12000	0,10448	0,00040
580,16000	0,10642	0,00025
580,20000	0,10107	0,00032
580,24000	0,10204	0,00027
580,28000	0,09883	0,00061
580,32000	0,09674	0,00034
580,36000	0,09725	0,00025
580,40000	0,09807	0,00027
580,44000	0,09725	0,00041
580,48000	0,09903	0,00046
580,52000	0,09985	0,00057
580,56000	0,09812	0,00038
580,60000	0,10194	0,00040
580,64000	0,09919	0,00023
580,68000	0,09893	0,00038
580,72000	0,10270	0,00031
580,76000	0,09903	0,00051
580,80000	0,09990	0,00056
580,84000	0,10372	0,00050
580,88000	0,10270	0,00031
580,92000	0,10173	0,00040
580,96000	0,10189	0,00047
581,00000	0,09802	0,00039
581,04000	0,09613	0,00033
581,08000	0,10000	0,00058
581,12000	0,10021	0,00046
581,16000	0,10285	0,00041
581,20000	0,10097	0,00031
581,24000	0,10087	0,00047
581,28000	0,10066	0,00031
581,32000	0,10469	0,00042
581,36000	0,10382	0,00034
581,40000	0,10265	0,00027
581,44000	0,09985	0,00057
581,48000	0,09791	0,00050
581,52000	0,10178	0,00041
581,56000	0,10189	0,00047
581,60000	0,10015	0,00031
581,64000	0,10173	0,00051
581,68000	0,10173	0,00046
581,72000	0,11100	0,00025
581,76000	0,10270	0,00044
581,80000	0,10942	0,00034
581,84000	0,10912	0,00050
581,88000	0,10560	0,00042
581,92000	0,10560	0,00042
581,96000	0,09985	0,00047
582,00000	0,10010	0,00036
582,04000	0,10173	0,00051
582,08000	0,09807	0,00027
582,12000	0,10306	0,00042
582,16000	0,10290	0,00034
582,20000	0,09924	0,00047
582,24000	0,10061	0,00027
582,28000	0,09613	0,00033
582,32000	0,10097	0,00031
582,36000	0,09623	0,00052
582,40000	0,09919	0,00046
582,44000	0,09924	0,00041
582,48000	0,10581	0,00040
582,52000	0,09491	0,00042
582,56000	0,10015	0,00044
582,60000	0,10000	0,00066
582,64000	0,10097	0,00055
582,68000	0,09797	0,00058
582,72000	0,09817	0,00040
582,76000	0,10189	0,00034
582,80000	0,09613	0,00046
582,84000	0,09354	0,00031
582,88000	0,09623	0,00025
582,92000	0,09797	0,00027
582,96000	0,10005	0,00032
583,00000	0,09822	0,00025
583,04000	0,09802	0,00032
583,08000	0,09802	0,00032
583,12000	0,09812	0,00064
583,16000	0,09797	0,00048
583,20000	0,09924	0,00047
583,24000	0,09909	0,00053
583,28000	0,09802	0,00032
583,32000	0,09797	0,00042
583,36000	0,10092	0,00040
583,40000	0,09720	0,00041
583,44000	0,10163	0,00053
583,48000	0,09730	0,00057
583,52000	0,09715	0,00040
583,56000	0,09420	0,00034
583,60000	0,09435	0,00044
583,64000	0,09903	0,00046
583,68000	0,09807	0,00042
583,72000	0,09511	0,00040
583,76000	0,09226	0,00033
583,80000	0,10173	0,00065
583,84000	0,09690	0,00055
583,88000	0,09893	0,00031
583,92000	0,09898	0,00042
583,96000	0,10071	0,00040
584,00000	0,10010	0,00053
584,04000	0,09985	0,00041
584,08000	0,10189	0,00052
584,12000	0,09883	0,00025
584,16000	0,09700	0,00032
584,20000	0,09715	0,00046
584,24000	0,09440	0,00027
584,28000	0,09893	0,00031
584,32000	0,10005	0,00039
584,36000	0,10010	0,00058
584,40000	0,09888	0,00046
584,44000	0,10245	0,00046
584,48000	0,09593	0,00048
584,52000	0,09593	0,00036
584,56000	0,10367	0,00042
584,60000	0,09725	0,00041
584,64000	0,10484	0,00034
584,68000	0,09710	0,00038
584,72000	0,09348	0,00048
584,76000	0,09817	0,00033
584,80000	0,09817	0,00033
584,84000	0,10555	0,00031
584,88000	0,09878	0,00052
584,92000	0,10066	0,00020
584,96000	0,09527	0,00041
585,00000	0,09898	0,00042
585,04000	0,09710	0,00044
585,08000	0,09685	0,00040
585,12000	0,10010	0,00036
585,16000	0,10270	0,00038
585,20000	0,09898	0,00042
585,24000	0,09705	0,00042
585,28000	0,10000	0,00027
585,32000	0,09797	0,00036
585,36000	0,10265	0,00048
585,40000	0,10265	0,00036
585,44000	0,09888	0,00033
585,48000	0,10550	0,00040
585,52000	0,09985	0,00041
585,56000	0,09791	0,00031
585,60000	0,10015	0,00050
585,64000	0,09608	0,00050
585,68000	0,09608	0,00038
585,72000	0,10071	0,00046
585,76000	0,10021	0,00040
585,80000	0,09700	0,00039
585,84000	0,10372	0,00044
585,88000	0,09532	0,00033
585,92000	0,09623	0,00041
585,96000	0,09608	0,00044
586,00000	0,10189	0,00041
586,04000	0,09425	0,00047
586,08000	0,10087	0,00034
586,12000	0,09506	0,00050
586,16000	0,10397	0,00033
586,20000	0,10189	0,00047
586,24000	0,09613	0,00040
586,28000	0,09618	0,00041
586,32000	0,10199	0,00044
586,36000	0,09715	0,00046
586,40000	0,09909	0,00042
586,44000	0,10382	0,00034
586,48000	0,10178	0,00047
586,52000	0,09817	0,00040
586,56000	0,09802	0,00032
586,60000	0,09685	0,00033
586,64000	0,09797	0,00015
586,68000	0,09914	0,00038
586,72000	0,09970	0,00046
586,76000	0,10005	0,00051
586,80000	0,10469	0,00036
586,84000	0,10168	0,00038
586,88000	0,10173	0,00033
586,92000	0,09797	0,00015
586,96000	0,10102	0,00048
587,00000	0,10458	0,00036
587,04000	0,10275	0,00040
587,08000	0,09990	0,00056
587,12000	0,10189	0,00061
587,16000	0,10204	0,00042
587,20000	0,09970	0,00051
587,24000	0,10275	0,00023
587,28000	0,10662	0,00027
587,32000	0,10107	0,00039
587,36000	0,09613	0,00033
587,40000	0,10280	0,00041
587,44000	0,10275	0,00046
587,48000	0,10168	0,00044
587,52000	0,09990	0,00046
587,56000	0,09720	0,00057
587,60000	0,09990	0,00040
587,64000	0,09995	0,00044
587,68000	0,10082	0,00034
587,72000	0,09914	0,00038
587,76000	0,09888	0,00046
587,80000	0,09720	0,00052
587,84000	0,10499	0,00051
587,88000	0,09791	0,00044
587,92000	0,10133	0,00057
587,96000	0,10275	0,00023
588,00000	0,09873	0,00025
588,04000	0,09914	0,00050
588,08000	0,09893	0,00038
588,12000	0,10469	0,00027
588,16000	0,09832	0,00057
588,20000	0,09781	0,00041
588,24000	0,10387	0,00047
588,28000	0,09802	0,00039
588,32000	0,09710	0,00038
588,36000	0,09725	0,00034
588,40000	0,09506	0,00050
588,44000	0,10102	0,00048
588,48000	0,09023	0,00040
588,52000	0,10010	0,00042
588,56000	0,10540	0,00034
588,60000	0,09613	0,00023
588,64000	0,09613	0,00046
588,68000	0,09985	0,00034
588,72000	0,09990	0,00046
588,76000	0,09517	0,00041
588,80000	0,09878	0,00047
588,84000	0,09165	0,00052
588,88000	0,09807	0,00036
588,92000	0,09812	0,00020
588,96000	0,10082	0,00034
589,00000	0,10143	0,00040
589,04000	0,09501	0,00048
589,08000	0,10280	0,00052
589,12000	0,09033	0,00036
589,16000	0,10306	0,00066
589,20000	0,09715	0,00051
589,24000	0,09705	0,00053
589,28000	0,09822	0,00025
589,32000	0,10560	0,00042
589,36000	0,09995	0,00050
589,40000	0,09893	0,00038
589,44000	0,09883	0,00052
589,48000	0,10514	0,00051
589,52000	0,10565	0,00039
589,56000	0,10285	0,00047
589,60000	0,10255	0,00042
589,64000	0,10015	0,00059
589,68000	0,09985	0,00065
589,72000	0,10066	0,00031
589,76000	0,09893	0,00038
589,80000	0,09909	0,00048
589,84000	0,10204	0,00036
589,88000	0,10835	0,00033
589,92000	0,10362	0,00039
589,96000	0,10458	0,00036
590,00000	0,09695	0,00036
590,04000	0,10372	0,00050
590,08000	0,09873	0,00034
590,12000	0,09914	0,00044
590,16000	0,10540	0,00025
590,20000	0,09522	0,00052
590,24000	0,09623	0,00052
590,28000	0,09532	0,00040
590,32000	0,10010	0,00027
590,36000	0,10290	0,00047
590,40000	0,10301	0,00038
590,44000	0,10443	0,00034
590,48000	0,09990	0,00040
590,52000	0,10362	0,00046
590,56000	0,10178	0,00034
590,60000	0,10830	0,00044
590,64000	0,10642	0,00025
590,68000	0,09903	0,00051
590,72000	0,09919	0,00033
590,76000	0,09430	0,00033
590,80000	0,10087	0,00025
590,84000	0,10387	0,00047
590,88000	0,10260	0,00039
590,92000	0,09705	0,00027
590,96000	0,10077	0,00025
591,00000	0,10082	0,00052
591,04000	0,09868	0,00040
591,08000	0,09690	0,00031
591,12000	0,09791	0,00031
591,16000	0,10458	0,00027
591,20000	0,10295	0,00033
591,24000	0,09919	0,00040
591,28000	0,09903	0,00032
591,32000	0,09318	0,00069
591,36000	0,10372	0,00038
591,40000	0,10199	0,00038
591,44000	0,10087	0,00034
591,48000	0,10306	0,00027
591,52000	0,09710	0,00050
591,56000	0,09613	0,00033
591,60000	0,09618	0,00041
591,64000	0,09888	0,00033
591,68000	0,09888	0,00040
591,72000	0,09903	0,00032
591,76000	0,10102	0,00058
591,80000	0,09914	0,00044
591,84000	0,09715	0,00033
591,88000	0,09705	0,00062
591,92000	0,10749	0,00034
591,96000	0,10372	0,00031
592,00000	0,10357	0,00036
592,04000	0,09786	0,00023
592,08000	0,09791	0,00020
592,12000	0,09903	0,00046
592,16000	0,09690	0,00031
592,20000	0,09725	0,00047
592,24000	0,10005	0,00046
592,28000	0,09435	0,00038
592,32000	0,09226	0,00040
592,36000	0,10010	0,00042
592,40000	0,10066	0,00038
592,44000	0,09150	0,00038
592,48000	0,09170	0,00034
592,52000	0,09822	0,00052
592,56000	0,10010	0,00036
592,60000	0,09797	0,00027
592,64000	0,09511	0,00051
592,68000	0,10071	0,00033
592,72000	0,10275	0,00033
592,76000	0,10290	0,00052
592,80000	0,09455	0,00038
592,84000	0,10010	0,00027
592,88000	0,09720	0,00034
592,92000	0,09700	0,00032
592,96000	0,09725	0,00061
593,00000	0,09522	0,00041
593,04000	0,09791	0,00020
593,08000	0,09807	0,00042
593,12000	0,10647	0,00034
593,16000	0,09598	0,00039
593,20000	0,09893	0,00031
593,24000	0,09588	0,00038
593,28000	0,10021	0,00033
593,32000	0,10000	0,00027
593,36000	0,09995	0,00031
593,40000	0,10010	0,00036
593,44000	0,10484	0,00041
593,48000	0,09527	0,00052
593,52000	0,09420	0,00025
593,56000	0,09522	0,00034
593,60000	0,10071	0,00056
593,64000	0,10087	0,00025
593,68000	0,09613	0,00046
593,72000	0,09995	0,00044
593,76000	0,10316	0,00048
593,80000	0,10173	0,00051
593,84000	0,10066	0,00050
593,88000	0,09975	0,00034
593,92000	0,10097	0,00059
593,96000	0,10082	0,00041
594,00000	0,10077	0,00041
594,04000	0,09522	0,00041
594,08000	0,10056	0,00039
594,12000	0,09715	0,00051
594,16000	0,10087	0,00034
594,20000	0,09603	0,00036
594,24000	0,09608	0,00038
594,28000	0,10082	0,00025
594,32000	0,10433	0,00041
594,36000	0,09975	0,00025
594,40000	0,10387	0,00041
594,44000	0,09679	0,00047
594,48000	0,09893	0,00044
594,52000	0,10026	0,00025
594,56000	0,09995	0,00055
594,60000	0,09527	0,00047
594,64000	0,09511	0,00040
594,68000	0,10061	0,00036
594,72000	0,09903	0,00023
594,76000	0,10010	0,00036
594,80000	0,09725	0,00047
594,84000	0,09690	0,00038
594,88000	0,09812	0,00031
594,92000	0,09639	0,00038
594,96000	0,10092	0,00040
595,00000	0,09354	0,00044
595,04000	0,09786	0,00046
595,08000	0,09802	0,00023
595,12000	0,09802	0,00032
595,16000	0,10087	0,00034
595,20000	0,10382	0,00061
595,24000	0,09720	0,00025
595,28000	0,09807	0,00027
595,32000	0,09425	0,00057
595,36000	0,09919	0,00040
595,40000	0,09807	0,00048
595,44000	0,09802	0,00039
595,48000	0,09995	0,00050
595,52000	0,09898	0,00048
595,56000	0,10082	0,00041
595,60000	0,10280	0,00034
595,64000	0,09598	0,00060
595,68000	0,10214	0,00042
595,72000	0,10178	0,00047
595,76000	0,09878	0,00034
595,80000	0,10448	0,00060
595,84000	0,09919	0,00046
595,88000	0,09623	0,00025
595,92000	0,10087	0,00047
595,96000	0,10183	0,00052
596,00000	0,10183	0,00041
596,04000	0,10168	0,00038
596,08000	0,10458	0,00036
596,12000	0,10168	0,00038
596,16000	0,10082	0,00034
596,20000	0,09318	0,00041
596,24000	0,09919	0,00051
596,28000	0,10010	0,00036
596,32000	0,10000	0,00048
596,36000	0,09898	0,00053
596,40000	0,09613	0,00023
596,44000	0,09506	0,00050
596,48000	0,10178	0,00034
596,52000	0,09791	0,00038
596,56000	0,09613	0,00033
596,60000	0,09608	0,00038
596,64000	0,09634	0,00040
596,68000	0,09603	0,00027
596,72000	0,10372	0,00031
596,76000	0,10464	0,00023
596,80000	0,10178	0,00041
596,84000	0,09430	0,00040
596,88000	0,09710	0,00050
596,92000	0,09720	0,00041
596,96000	0,09440	0,00027
597,00000	0,10530	0,00040
597,04000	0,10301	0,00038
597,08000	0,09898	0,00036
597,12000	0,10000	0,00036
597,16000	0,09695	0,00042
597,20000	0,09695	0,00048
597,24000	0,09985	0,00034
597,28000	0,09710	0,00038
597,32000	0,10367	0,00036
597,36000	0,09527	0,00052
597,40000	0,10082	0,00041
597,44000	0,10311	0,00039
597,48000	0,10265	0,00042
597,52000	0,10443	0,00041
597,56000	0,09802	0,00023
597,60000	0,09618	0,00025
597,64000	0,10443	0,00034
597,68000	0,09888	0,00046
597,72000	0,09903	0,00032
597,76000	0,09980	0,00041
597,80000	0,09990	0,00023
597,84000	0,09308	0,00056
597,88000	0,10550	0,00040
597,92000	0,10005	0,00039
597,96000	0,10270	0,00059
598,00000	0,10000	0,00048
598,04000	0,10764	0,00042
598,08000	0,10744	0,00025
598,12000	0,09786	0,00033
598,16000	0,10138	0,00052
598,20000	0,10275	0,00033
598,24000	0,09985	0,00041
598,28000	0,10015	0,00038
598,32000	0,09705	0,00053
598,36000	0,09888	0,00033
598,40000	0,09903	0,00032
598,44000	0,09903	0,00051
598,48000	0,09797	0,00027
598,52000	0,09247	0,00053
598,56000	0,09903	0,00039
598,60000	0,10178	0,00034
598,64000	0,09786	0,00046
598,68000	0,09807	0,00042
598,72000	0,09975	0,00034
598,76000	0,10189	0,00041
598,80000	0,10265	0,00027
598,84000	0,09893	0,00059
598,88000	0,10275	0,00040
598,92000	0,10367	0,00036
598,96000	0,10357	0,00053
599,00000	0,10479	0,00033
599,04000	0,09924	0,00047
599,08000	0,09644	0,00027
599,12000	0,10377	0,00040
599,16000	0,10647	0,00025
599,20000	0,09888	0,00040
599,24000	0,09705	0,00036
599,28000	0,09710	0,00044
599,32000	0,09909	0,00058
599,36000	0,10082	0,00025
599,40000	0,09878	0,00041
599,44000	0,09608	0,00044
599,48000	0,09517	0,00041
599,52000	0,09898	0,00053
599,56000	0,09883	0,00025
599,60000	0,10209	0,00032
599,64000	0,09791	0,00038
599,68000	0,09430	0,00051
599,72000	0,09781	0,00034
599,76000	0,10652	0,00040
599,80000	0,09527	0,00041
599,84000	0,10260	0,00032
599,88000	0,10280	0,00041
599,92000	0,10005	0,00032
599,96000	0,09420	0,00052
600,00000	0,09415	0,00034
600,04000	0,09893	0,00044
600,08000	0,09313	0,00052
600,12000	0,09710	0,00050
600,16000	0,09710	0,00055
600,20000	0,09791	0,00038
600,24000	0,09313	0,00047
600,28000	0,09608	0,00031
600,32000	0,10357	0,00053
600,36000	0,10000	0,00027
600,40000	0,09603	0,00036
600,44000	0,09634	0,00023
600,48000	0,09542	0,00036
600,52000	0,09348	0,00048
600,56000	0,10255	0,00042
600,60000	0,09613	0,00033
600,64000	0,09797	0,00048
600,68000	0,09333	0,00031
600,72000	0,09720	0,00041
600,76000	0,09690	0,00038
600,80000	0,10178	0,00052
600,84000	0,09878	0,00057
600,88000	0,10362	0,00032
600,92000	0,09399	0,00036
600,96000	0,09797	0,00027
601,00000	0,09837	0,00033
601,04000	0,09781	0,00041
601,08000	0,09634	0,00046
601,12000	0,09231	0,00044
601,16000	0,10010	0,00048
601,20000	0,09888	0,00046
601,24000	0,09532	0,00051
601,28000	0,09700	0,00032
601,32000	0,09700	0,00023
601,36000	0,10087	0,00041
601,40000	0,09415	0,00047
601,44000	0,09695	0,00036
601,48000	0,09145	0,00048
601,52000	0,09914	0,00055
601,56000	0,09995	0,00038
601,60000	0,09903	0,00051
601,64000	0,09878	0,00047
601,68000	0,09629	0,00034
601,72000	0,10071	0,00056
601,76000	0,09817	0,00033
601,80000	0,09613	0,00051
601,84000	0,10474	0,00050
601,88000	0,10077	0,00034
601,92000	0,10082	0,00034
601,96000	0,09690	0,00038
602,00000	0,09786	0,00033
602,04000	0,09807	0,00027
602,08000	0,09588	0,00038
602,12000	0,10092	0,00040
602,16000	0,10077	0,00041
602,20000	0,10071	0,00023
602,24000	0,10082	0,00047
602,28000	0,09501	0,00062
602,32000	0,10183	0,00025
602,36000	0,09873	0,00052
602,40000	0,09812	0,00020
602,44000	0,09883	0,00047
602,48000	0,09980	0,00041
602,52000	0,09975	0,00041
602,56000	0,10189	0,00047
602,60000	0,10474	0,00044
602,64000	0,10178	0,00034
602,68000	0,09598	0,00039
602,72000	0,09797	0,00042
602,76000	0,09868	0,00051
602,80000	0,09888	0,00051
602,84000	0,10097	0,00038
602,88000	0,10092	0,00033
602,92000	0,10102	0,00036
602,96000	0,09542	0,00036
603,00000	0,10077	0,00057
603,04000	0,10474	0,00044
603,08000	0,10270	0,00031
603,12000	0,10290	0,00034
603,16000	0,09781	0,00034
603,20000	0,10183	0,00047
603,24000	0,09715	0,00040
603,28000	0,10260	0,00032
603,32000	0,10901	0,00047
603,36000	0,10204	0,00042
603,40000	0,10194	0,00046
603,44000	0,10010	0,00036
603,48000	0,09735	0,00051
603,52000	0,10270	0,00044
603,56000	0,10387	0,00034
603,60000	0,10555	0,00031
603,64000	0,09888	0,00051
603,68000	0,09603	0,00042
603,72000	0,09613	0,00033
603,76000	0,09883	0,00047
603,80000	0,10163	0,00042
603,84000	0,09496	0,00046
603,88000	0,10245	0,00023
603,92000	0,10545	0,00047
603,96000	0,10168	0,00055
604,00000	0,10168	0,00044
604,04000	0,09791	0,00055
604,08000	0,10280	0,00041
604,12000	0,10183	0,00052
604,16000	0,09924	0,00061
604,20000	0,10469	0,00042
604,24000	0,09903	0,00032
604,28000	0,09868	0,00046
604,32000	0,10092	0,00040
604,36000	0,09883	0,00034
604,40000	0,10367	0,00053
604,44000	0,10071	0,00023
604,48000	0,09690	0,00031
604,52000	0,10189	0,00041
604,56000	0,10087	0,00034
604,60000	0,10077	0,00041
604,64000	0,10117	0,00050
604,68000	0,09817	0,00033
604,72000	0,10652	0,00040
604,76000	0,10031	0,00041
604,80000	0,10280	0,00025
604,84000	0,10265	0,00027
604,88000	0,10260	0,00046
604,92000	0,09705	0,00053
604,96000	0,09914	0,00038
605,00000	0,09517	0,00052
605,04000	0,09715	0,00023
605,08000	0,10295	0,00056
605,12000	0,09517	0,00041
605,16000	0,09511	0,00033
605,20000	0,10545	0,00057
605,24000	0,10082	0,00052
605,28000	0,09242	0,00060
605,32000	0,09323	0,00041
605,36000	0,09802	0,00023
605,40000	0,09812	0,00044
605,44000	0,09883	0,00041
605,48000	0,09903	0,00032
605,52000	0,09038	0,00039
605,56000	0,09623	0,00047
605,60000	0,09883	0,00047
605,64000	0,10545	0,00065
605,68000	0,10000	0,00036
605,72000	0,09430	0,00033
605,76000	0,09440	0,00027
605,80000	0,09791	0,00050
605,84000	0,10270	0,00050
605,88000	0,09501	0,00036
605,92000	0,09898	0,00036
605,96000	0,09608	0,00031
606,00000	0,10077	0,00041
606,04000	0,10087	0,00034
606,08000	0,10066	0,00031
606,12000	0,09751	0,00046
606,16000	0,09975	0,00025
606,20000	0,09898	0,00036
606,24000	0,09741	0,00044
606,28000	0,09730	0,00052
606,32000	0,09888	0,00051
606,36000	0,09893	0,00059
606,40000	0,10178	0,00057
606,44000	0,10077	0,00034
606,48000	0,09603	0,00048
606,52000	0,09033	0,00048
606,56000	0,09247	0,00036
606,60000	0,10285	0,00061
606,64000	0,10265	0,00058
606,68000	0,10077	0,00034
606,72000	0,09705	0,00048
606,76000	0,10372	0,00038
606,80000	0,09903	0,00039
606,84000	0,10453	0,00031
606,88000	0,09440	0,00053
606,92000	0,09797	0,00042
606,96000	0,09797	0,00036
607,00000	0,10632	0,00023
607,04000	0,09898	0,00053
607,08000	0,10306	0,00042
607,12000	0,10077	0,00047
607,16000	0,10199	0,00031
607,20000	0,10102	0,00027
607,24000	0,10087	0,00025
607,28000	0,10275	0,00051
607,32000	0,09924	0,00041
607,36000	0,10178	0,00047
607,40000	0,09802	0,00046
607,44000	0,10107	0,00032
607,48000	0,09995	0,00031
607,52000	0,09690	0,00050
607,56000	0,09715	0,00033
607,60000	0,09613	0,00046
607,64000	0,09522	0,00047
607,68000	0,10290	0,00034
607,72000	0,09985	0,00047
607,76000	0,10214	0,00036
607,80000	0,09791	0,00031
607,84000	0,09832	0,00061
607,88000	0,09700	0,00032
607,92000	0,10082	0,00041
607,96000	0,09511	0,00033
608,00000	0,09903	0,00039
608,04000	0,09888	0,00040
608,08000	0,09685	0,00033
608,12000	0,09700	0,00039
608,16000	0,09517	0,00041
608,20000	0,10000	0,00027
608,24000	0,09797	0,00036
608,28000	0,09343	0,00051
608,32000	0,10290	0,00047
608,36000	0,09598	0,00032
608,40000	0,10744	0,00065
608,44000	0,10718	0,00023
608,48000	0,10189	0,00047
608,52000	0,10071	0,00023
608,56000	0,10102	0,00042
608,60000	0,09450	0,00036
608,64000	0,09552	0,00058
608,68000	0,10260	0,00039
608,72000	0,10280	0,00065
608,76000	0,09903	0,00051
608,80000	0,09629	0,00025
608,84000	0,09797	0,00062
608,88000	0,10071	0,00023
608,92000	0,09104	0,00040
608,96000	0,09985	0,00025
609,00000	0,10000	0,00053
609,04000	0,09700	0,00000
609,08000	0,09990	0,00051
609,12000	0,10270	0,00044
609,16000	0,09532	0,00046
609,20000	0,09623	0,00034
609,24000	0,10000	0,00036
609,28000	0,10082	0,00025
609,32000	0,10046	0,00038
609,36000	0,09725	0,00041
609,40000	0,09888	0,00056
609,44000	0,09807	0,00036
609,48000	0,10005	0,00032
609,52000	0,09532	0,00040
609,56000	0,10097	0,00031
609,60000	0,10077	0,00047
609,64000	0,10301	0,00031
609,68000	0,09898	0,00048
609,72000	0,10000	0,00036
609,76000	0,09735	0,00046
609,80000	0,10199	0,00044
609,84000	0,09517	0,00041
609,88000	0,09883	0,00034
609,92000	0,09893	0,00050
609,96000	0,09995	0,00050
610,00000	0,09690	0,00044
610,04000	0,10199	0,00038
610,08000	0,09812	0,00050
610,12000	0,10469	0,00036
610,16000	0,10382	0,00041
610,20000	0,10377	0,00023
610,24000	0,10372	0,00044
610,28000	0,09608	0,00055
610,32000	0,09873	0,00034
610,36000	0,10306	0,00062
610,40000	0,09445	0,00039
610,44000	0,10112	0,00027
610,48000	0,10046	0,00038
610,52000	0,10077	0,00034
610,56000	0,09613	0,00060
610,60000	0,09226	0,00033
610,64000	0,10581	0,00040
610,68000	0,10005	0,00032
610,72000	0,09634	0,00033
610,76000	0,09430	0,00046
610,80000	0,09435	0,00031
610,84000	0,10082	0,00047
610,88000	0,09985	0,00034
610,92000	0,09613	0,00040
610,96000	0,09695	0,00015
611,00000	0,10178	0,00034
611,04000	0,10525	0,00038
611,08000	0,10586	0,00034
611,12000	0,09394	0,00046
611,16000	0,09822	0,00041
611,20000	0,10443	0,00034
611,24000	0,10214	0,00036
611,28000	0,09802	0,00032
611,32000	0,10163	0,00042
611,36000	0,09405	0,00038
611,40000	0,09420	0,00057
611,44000	0,10280	0,00041
611,48000	0,09878	0,00052
611,52000	0,09888	0,00051
611,56000	0,10250	0,00020
611,60000	0,09807	0,00048
611,64000	0,10275	0,00051
611,68000	0,10270	0,00031
611,72000	0,10295	0,00046
611,76000	0,09807	0,00027
611,80000	0,09893	0,00038
611,84000	0,10112	0,00053
611,88000	0,09608	0,00038
611,92000	0,09710	0,00044
611,96000	0,09705	0,00027
612,00000	0,09888	0,00033
612,04000	0,09914	0,00064
612,08000	0,09786	0,00040
612,12000	0,09511	0,00046
612,16000	0,10158	0,00056
612,20000	0,09786	0,00033
612,24000	0,09797	0,00062
612,28000	0,09817	0,00023
612,32000	0,09598	0,00046
612,36000	0,10275	0,00023
612,40000	0,09618	0,00065
612,44000	0,09629	0,00025
612,48000	0,10346	0,00040
612,52000	0,10194	0,00046
612,56000	0,10183	0,00052
612,60000	0,09236	0,00027
612,64000	0,10637	0,00052
612,68000	0,10301	0,00059
612,72000	0,10097	0,00055
612,76000	0,10178	0,00047
612,80000	0,09522	0,00047
612,84000	0,09527	0,00052
612,88000	0,09405	0,00044
612,92000	0,10082	0,00034
612,96000	0,09705	0,00053
613,00000	0,09603	0,00036
613,04000	0,09975	0,00034
613,08000	0,10097	0,00038
613,12000	0,09700	0,00023
613,16000	0,09705	0,00042
613,20000	0,09720	0,00047
613,24000	0,09919	0,00046
613,28000	0,10255	0,00036
613,32000	0,09685	0,00046
613,36000	0,09807	0,00015
613,40000	0,10458	0,00027
613,44000	0,10464	0,00039
613,48000	0,09791	0,00031
613,52000	0,09527	0,00047
613,56000	0,10204	0,00036
613,60000	0,10082	0,00041
613,64000	0,10275	0,00046
613,68000	0,09893	0,00050
613,72000	0,09506	0,00038
613,76000	0,09527	0,00052
613,80000	0,09705	0,00058
613,84000	0,09425	0,00047
613,88000	0,09995	0,00050
613,92000	0,10097	0,00038
613,96000	0,09898	0,00048
614,00000	0,09791	0,00031
614,04000	0,09781	0,00025
614,08000	0,09812	0,00038
614,12000	0,09522	0,00073
614,16000	0,09791	0,00044
614,20000	0,09786	0,00046
614,24000	0,09995	0,00038
614,28000	0,09700	0,00032
614,32000	0,09705	0,00048
614,36000	0,09802	0,00046
614,40000	0,10387	0,00034
614,44000	0,09629	0,00034
614,48000	0,09690	0,00050
614,52000	0,09898	0,00042
614,56000	0,09720	0,00041
614,60000	0,10331	0,00052
614,64000	0,10357	0,00036
614,68000	0,09608	0,00031
614,72000	0,10189	0,00041
614,76000	0,09817	0,00056
614,80000	0,10021	0,00033
614,84000	0,10209	0,00032
614,88000	0,10005	0,00039
614,92000	0,09990	0,00040
614,96000	0,09909	0,00027
615,00000	0,10071	0,00033
615,04000	0,09298	0,00053
615,08000	0,09898	0,00027
615,12000	0,09990	0,00033
615,16000	0,09552	0,00053
615,20000	0,09975	0,00047
615,24000	0,09975	0,00034
615,28000	0,10194	0,00051
615,32000	0,10194	0,00040
615,36000	0,09802	0,00046
615,40000	0,09985	0,00041
615,44000	0,10005	0,00039
615,48000	0,10102	0,00048
615,52000	0,10092	0,00051
615,56000	0,09517	0,00034
615,60000	0,10341	0,00052
615,64000	0,09985	0,00034
615,68000	0,09623	0,00047
615,72000	0,09618	0,00041
615,76000	0,10265	0,00048
615,80000	0,10285	0,00034
615,84000	0,10158	0,00046
615,88000	0,09980	0,00041
615,92000	0,09690	0,00031
615,96000	0,09623	0,00034
616,00000	0,09812	0,00038
616,04000	0,10357	0,00048
616,08000	0,09909	0,00042
616,12000	0,09929	0,00041
616,16000	0,09888	0,00065
616,20000	0,10265	0,00027
616,24000	0,09527	0,00065
616,28000	0,09786	0,00033
616,32000	0,08956	0,00025
616,36000	0,09247	0,00048
616,40000	0,09226	0,00023
616,44000	0,10087	0,00041
616,48000	0,09623	0,00041
616,52000	0,09802	0,00032
616,56000	0,09685	0,00033
616,60000	0,09990	0,00033
616,64000	0,09730	0,00052
616,68000	0,09715	0,00060
616,72000	0,10346	0,00040
616,76000	0,09817	0,00051
616,80000	0,10728	0,00020
616,84000	0,09730	0,00034
616,88000	0,09822	0,00041
616,92000	0,10097	0,00050
616,96000	0,09695	0,00048
617,00000	0,09720	0,00041
617,04000	0,10392	0,00041
617,08000	0,10382	0,00034
617,12000	0,09511	0,00046
617,16000	0,09700	0,00032
617,20000	0,10204	0,00036
617,24000	0,09705	0,00048
617,28000	0,09690	0,00055
617,32000	0,09909	0,00053
617,36000	0,10535	0,00034
617,40000	0,10367	0,00053
617,44000	0,10382	0,00034
617,48000	0,10560	0,00042
617,52000	0,10626	0,00031
617,56000	0,10189	0,00034
617,60000	0,10183	0,00065
617,64000	0,10845	0,00034
617,68000	0,10362	0,00051
617,72000	0,10937	0,00060
617,76000	0,10382	0,00052
617,80000	0,09786	0,00040
617,84000	0,10657	0,00038
617,88000	0,10632	0,00023
617,92000	0,10525	0,00031
617,96000	0,11100	0,00041
618,00000	0,11090	0,00046
618,04000	0,11207	0,00034
618,08000	0,11029	0,00048
618,12000	0,10840	0,00034
618,16000	0,10825	0,00053
618,20000	0,11283	0,00036
618,24000	0,10570	0,00048
618,28000	0,10856	0,00033
618,32000	0,11691	0,00042
618,36000	0,11146	0,00052
618,40000	0,11222	0,00053
618,44000	0,10912	0,00050
618,48000	0,10952	0,00047
618,52000	0,11497	0,00046
618,56000	0,11044	0,00025
618,60000	0,11309	0,00057
618,64000	0,11054	0,00041
618,68000	0,11237	0,00031
618,72000	0,10545	0,00047
618,76000	0,10540	0,00034
618,80000	0,11018	0,00036
618,84000	0,11400	0,00057
618,88000	0,10754	0,00051
618,92000	0,10657	0,00055
618,96000	0,11044	0,00047
619,00000	0,10637	0,00041
619,04000	0,09802	0,00032
619,08000	0,09791	0,00020
619,12000	0,10576	0,00044
619,16000	0,10178	0,00041
619,20000	0,10443	0,00034
619,24000	0,10066	0,00038
619,28000	0,09893	0,00050
619,32000	0,10550	0,00060
619,36000	0,10535	0,00041
619,40000	0,10163	0,00042
619,44000	0,10647	0,00047
619,48000	0,09807	0,00053
619,52000	0,10194	0,00046
619,56000	0,10591	0,00025
619,60000	0,09807	0,00027
619,64000	0,09812	0,00044
619,68000	0,10621	0,00048
619,72000	0,09995	0,00038
619,76000	0,09995	0,00038
619,80000	0,10270	0,00031
619,84000	0,09705	0,00036
619,88000	0,10082	0,00061
619,92000	0,10183	0,00034
619,96000	0,10189	0,00034
620,00000	0,09898	0,00066
620,04000	0,10555	0,00044
620,08000	0,10082	0,00034
620,12000	0,10163	0,00048
620,16000	0,10082	0,00041
620,20000	0,10077	0,00041
620,24000	0,10051	0,00048
620,28000	0,09445	0,00032
620,32000	0,10540	0,00052
620,36000	0,10275	0,00040
620,40000	0,09807	0,00027
620,44000	0,09812	0,00055
620,48000	0,10362	0,00039
620,52000	0,10387	0,00041
620,56000	0,10015	0,00031
620,60000	0,10214	0,00042
620,64000	0,10097	0,00038
620,68000	0,09903	0,00046
620,72000	0,10275	0,00023
620,76000	0,10270	0,00059
620,80000	0,10469	0,00027
620,84000	0,10464	0,00046
620,88000	0,10464	0,00046
620,92000	0,10464	0,00032
620,96000	0,10285	0,00025
621,00000	0,10275	0,00051
621,04000	0,10087	0,00041
621,08000	0,10550	0,00040
621,12000	0,10550	0,00033
621,16000	0,10667	0,00039
621,20000	0,10377	0,00040
621,24000	0,10896	0,00047
621,28000	0,10387	0,00041
621,32000	0,10245	0,00033
621,36000	0,10382	0,00041
621,40000	0,11100	0,00047
621,44000	0,11130	0,00048
621,48000	0,11039	0,00033
621,52000	0,11237	0,00044
621,56000	0,11787	0,00051
621,60000	0,12067	0,00025
621,64000	0,11512	0,00047
621,68000	0,11594	0,00038
621,72000	0,11594	0,00064
621,76000	0,12602	0,00039
621,80000	0,12159	0,00040
621,84000	0,11609	0,00034
621,88000	0,12719	0,00033
621,92000	0,13289	0,00034
621,96000	0,13299	0,00023
622,00000	0,13310	0,00036
622,04000	0,13478	0,00038
622,08000	0,13951	0,00057
622,12000	0,13951	0,00065
622,16000	0,13747	0,00034
622,20000	0,13859	0,00040
622,24000	0,13666	0,00042
622,28000	0,13732	0,00044
622,32000	0,13753	0,00034
622,36000	0,14710	0,00041
622,40000	0,13839	0,00033
622,44000	0,14491	0,00036
622,48000	0,14134	0,00066
622,52000	0,14048	0,00034
622,56000	0,13951	0,00041
622,60000	0,13936	0,00044
622,64000	0,14053	0,00041
622,68000	0,13590	0,00052
622,72000	0,14043	0,00056
622,76000	0,13931	0,00036
622,80000	0,12938	0,00025
622,84000	0,13671	0,00039
622,88000	0,12454	0,00036
622,92000	0,12470	0,00025
622,96000	0,13121	0,00044
623,00000	0,12449	0,00039
623,04000	0,12358	0,00059
623,08000	0,11609	0,00034
623,12000	0,12072	0,00041
623,16000	0,12072	0,00041
623,20000	0,12077	0,00023
623,24000	0,11018	0,00048
623,28000	0,10830	0,00038
623,32000	0,10825	0,00027
623,36000	0,11278	0,00051
623,40000	0,11614	0,00034
623,44000	0,10652	0,00046
623,48000	0,10647	0,00034
623,52000	0,10560	0,00042
623,56000	0,10270	0,00031
623,60000	0,10082	0,00025
623,64000	0,10647	0,00034
623,68000	0,10560	0,00062
623,72000	0,10071	0,00040
623,76000	0,10071	0,00040
623,80000	0,10107	0,00039
623,84000	0,10178	0,00052
623,88000	0,10183	0,00041
623,92000	0,10189	0,00047
623,96000	0,09786	0,00040
624,00000	0,10097	0,00020
624,04000	0,10535	0,00034
624,08000	0,10555	0,00050
624,12000	0,10260	0,00051
624,16000	0,09980	0,00034
624,20000	0,09802	0,00032
624,24000	0,10265	0,00027
624,28000	0,09791	0,00031
624,32000	0,10168	0,00044
624,36000	0,10173	0,00046
624,40000	0,10173	0,00051
624,44000	0,10397	0,00033
624,48000	0,09501	0,00048
624,52000	0,10285	0,00034
624,56000	0,10092	0,00040
624,60000	0,10474	0,00038
624,64000	0,09236	0,00042
624,68000	0,09247	0,00042
624,72000	0,10560	0,00042
624,76000	0,09990	0,00033
624,80000	0,09491	0,00053
624,84000	0,10708	0,00038
624,88000	0,10000	0,00053
624,92000	0,09888	0,00040
624,96000	0,09909	0,00053
625,00000	0,10087	0,00025
625,04000	0,10458	0,00048
625,08000	0,09985	0,00034
625,12000	0,10087	0,00061
625,16000	0,09807	0,00048
625,20000	0,09807	0,00027
625,24000	0,10194	0,00033
625,28000	0,10168	0,00044
625,32000	0,10341	0,00052
625,36000	0,10000	0,00015
625,40000	0,10377	0,00033
625,44000	0,10626	0,00031
625,48000	0,10087	0,00025
625,52000	0,09715	0,00051
625,56000	0,09720	0,00052
625,60000	0,10209	0,00051
625,64000	0,10194	0,00051
625,68000	0,10285	0,00041
625,72000	0,10077	0,00034
625,76000	0,10077	0,00034
625,80000	0,09990	0,00040
625,84000	0,10000	0,00042
625,88000	0,10077	0,00041
625,92000	0,09685	0,00033
625,96000	0,10066	0,00044
626,00000	0,09430	0,00023
626,04000	0,10657	0,00038
626,08000	0,09903	0,00039
626,12000	0,10458	0,00027
626,16000	0,10438	0,00034
626,20000	0,10275	0,00033
626,24000	0,10178	0,00061
626,28000	0,10031	0,00034
626,32000	0,09985	0,00034
626,36000	0,10331	0,00052
626,40000	0,09812	0,00038
626,44000	0,09817	0,00033
626,48000	0,09873	0,00025
626,52000	0,09898	0,00048
626,56000	0,09893	0,00044
626,60000	0,10194	0,00033
626,64000	0,10092	0,00051
626,68000	0,10066	0,00031
626,72000	0,09898	0,00053
626,76000	0,09909	0,00042
626,80000	0,10438	0,00034
626,84000	0,09893	0,00055
626,88000	0,10005	0,00032
626,92000	0,10071	0,00033
626,96000	0,09914	0,00050
627,00000	0,09975	0,00041
627,04000	0,10000	0,00036
627,08000	0,10071	0,00033
627,12000	0,09980	0,00047
627,16000	0,10759	0,00031
627,20000	0,10733	0,00046
627,24000	0,09593	0,00053
627,28000	0,10377	0,00046
627,32000	0,10372	0,00038
627,36000	0,10723	0,00058
627,40000	0,10178	0,00041
627,44000	0,10372	0,00038
627,48000	0,10550	0,00033
627,52000	0,10087	0,00034
627,56000	0,10265	0,00036
627,60000	0,10922	0,00039
627,64000	0,10922	0,00039
627,68000	0,10754	0,00056
627,72000	0,10489	0,00025
627,76000	0,11110	0,00040
627,80000	0,11130	0,00053
627,84000	0,10733	0,00033
627,88000	0,10550	0,00033
627,92000	0,10550	0,00040
627,96000	0,11120	0,00048
628,00000	0,11395	0,00040
628,04000	0,10932	0,00044
628,08000	0,10642	0,00025
628,12000	0,10209	0,00039
628,16000	0,10749	0,00047
628,20000	0,10749	0,00047
628,24000	0,10728	0,00031
628,28000	0,11390	0,00044
628,32000	0,11024	0,00032
628,36000	0,11029	0,00036
628,40000	0,10759	0,00038
628,44000	0,11018	0,00027
628,48000	0,11125	0,00039
628,52000	0,11100	0,00041
628,56000	0,11507	0,00025
628,60000	0,11884	0,00042
628,64000	0,11212	0,00023
628,68000	0,11370	0,00044
628,72000	0,11212	0,00033
628,76000	0,11314	0,00046
628,80000	0,11293	0,00051
628,84000	0,11034	0,00031
628,88000	0,11370	0,00038
628,92000	0,11477	0,00042
628,96000	0,10362	0,00046
629,00000	0,10998	0,00047
629,04000	0,10927	0,00027
629,08000	0,11105	0,00034
629,12000	0,11110	0,00051
629,16000	0,10825	0,00036
629,20000	0,10484	0,00041
629,24000	0,10738	0,00047
629,28000	0,10957	0,00040
629,32000	0,11034	0,00038
629,36000	0,10840	0,00047
629,40000	0,10861	0,00044
629,44000	0,10438	0,00057
629,48000	0,10637	0,00034
629,52000	0,10453	0,00038
629,56000	0,10270	0,00038
629,60000	0,10275	0,00056
629,64000	0,09741	0,00050
629,68000	0,09710	0,00055
629,72000	0,10000	0,00042
629,76000	0,10005	0,00051
629,80000	0,10458	0,00036
629,84000	0,09807	0,00036
629,88000	0,10265	0,00036
629,92000	0,09700	0,00039
629,96000	0,09863	0,00044
630,00000	0,09868	0,00051
630,04000	0,09893	0,00044
630,08000	0,10183	0,00041
630,12000	0,09797	0,00027
630,16000	0,09537	0,00050
630,20000	0,09909	0,00053
630,24000	0,09807	0,00048
630,28000	0,09797	0,00027
630,32000	0,11136	0,00050
630,36000	0,10194	0,00033
630,40000	0,09888	0,00051
630,44000	0,10077	0,00025
630,48000	0,09883	0,00025
630,52000	0,09695	0,00048
630,56000	0,10194	0,00033
630,60000	0,10219	0,00031
630,64000	0,09802	0,00046
630,68000	0,09822	0,00052
630,72000	0,09629	0,00025
630,76000	0,09791	0,00031
630,80000	0,09598	0,00039
630,84000	0,09797	0,00015
630,88000	0,09807	0,00015
630,92000	0,10280	0,00047
630,96000	0,10077	0,00041
631,00000	0,09812	0,00055
631,04000	0,10163	0,00053
631,08000	0,09924	0,00041
631,12000	0,09547	0,00032
631,16000	0,09496	0,00051
631,20000	0,09593	0,00053
631,24000	0,09898	0,00042
631,28000	0,10280	0,00025
631,32000	0,09333	0,00031
631,36000	0,10209	0,00039
631,40000	0,10402	0,00038
631,44000	0,10265	0,00027
631,48000	0,10290	0,00061
631,52000	0,10448	0,00046
631,56000	0,11227	0,00023
631,60000	0,10830	0,00044
631,64000	0,09980	0,00047
631,68000	0,11227	0,00051
631,72000	0,10840	0,00034
631,76000	0,10861	0,00031
631,80000	0,10474	0,00031
631,84000	0,11008	0,00046
631,88000	0,10647	0,00041
631,92000	0,11879	0,00031
631,96000	0,11095	0,00034
632,00000	0,11105	0,00041
632,04000	0,11110	0,00046
632,08000	0,11186	0,00059
632,12000	0,11385	0,00036
632,16000	0,11385	0,00042
632,20000	0,11762	0,00057
632,24000	0,11207	0,00041
632,28000	0,11614	0,00034
632,32000	0,11813	0,00047
632,36000	0,11782	0,00042
632,40000	0,11202	0,00034
632,44000	0,11976	0,00033
632,48000	0,11298	0,00041
632,52000	0,11502	0,00034
632,56000	0,11981	0,00038
632,60000	0,11991	0,00051
632,64000	0,11991	0,00051
632,68000	0,11792	0,00036
632,72000	0,11996	0,00042
632,76000	0,11594	0,00071
632,80000	0,11227	0,00032
632,84000	0,11436	0,00036
632,88000	0,11405	0,00047
632,92000	0,11421	0,00020
632,96000	0,11400	0,00057
633,00000	0,11309	0,00025
633,04000	0,11024	0,00051
633,08000	0,11293	0,00046
633,12000	0,11080	0,00042
633,16000	0,11400	0,00034
633,20000	0,10906	0,00033
633,24000	0,10927	0,00027
633,28000	0,10937	0,00046
633,32000	0,10759	0,00031
633,36000	0,11115	0,00050
633,40000	0,11003	0,00047
633,44000	0,10657	0,00050
633,48000	0,10667	0,00060
633,52000	0,10637	0,00025
633,56000	0,10270	0,00031
633,60000	0,10922	0,00032
633,64000	0,10270	0,00031
633,68000	0,09308	0,00051
633,72000	0,10214	0,00042
633,76000	0,10357	0,00042
633,80000	0,10097	0,00031
633,84000	0,10102	0,00053
633,88000	0,09430	0,00040
633,92000	0,10102	0,00048
633,96000	0,09410	0,00033
634,00000	0,09511	0,00040
634,04000	0,10158	0,00064
634,08000	0,09985	0,00041
634,12000	0,10005	0,00032
634,16000	0,09970	0,00023
634,20000	0,09445	0,00051
634,24000	0,09425	0,00034
634,28000	0,09705	0,00027
634,32000	0,09608	0,00050
634,36000	0,09903	0,00046
634,40000	0,09817	0,00033
634,44000	0,09797	0,00036
634,48000	0,09720	0,00041
634,52000	0,09328	0,00033
634,56000	0,09430	0,00033
634,60000	0,10555	0,00038
634,64000	0,09898	0,00048
634,68000	0,10168	0,00044
634,72000	0,10153	0,00042
634,76000	0,09629	0,00047
634,80000	0,09786	0,00033
634,84000	0,09629	0,00047
634,88000	0,10189	0,00047
634,92000	0,10077	0,00041
634,96000	0,09542	0,00048
635,00000	0,09537	0,00044
635,04000	0,10372	0,00050
635,08000	0,09527	0,00041
635,12000	0,09511	0,00051
635,16000	0,09878	0,00034
635,20000	0,09613	0,00051
635,24000	0,09496	0,00051
635,28000	0,10000	0,00048
635,32000	0,10000	0,00042
635,36000	0,09990	0,00060
635,40000	0,10199	0,00044
635,44000	0,09527	0,00047
635,48000	0,10173	0,00040
635,52000	0,09435	0,00038
635,56000	0,10270	0,00031
635,60000	0,10280	0,00047
635,64000	0,10163	0,00036
635,68000	0,10168	0,00031
635,72000	0,09914	0,00044
635,76000	0,09893	0,00059
635,80000	0,10346	0,00051
635,84000	0,09705	0,00048
635,88000	0,09695	0,00036
635,92000	0,09807	0,00058
635,96000	0,10285	0,00034
636,00000	0,10178	0,00034
636,04000	0,09608	0,00038
636,08000	0,09705	0,00042
636,12000	0,10265	0,00015
636,16000	0,09710	0,00050
636,20000	0,09705	0,00015
636,24000	0,09909	0,00048
636,28000	0,09863	0,00050
636,32000	0,10077	0,00025
636,36000	0,09517	0,00061
636,40000	0,09130	0,00038
636,44000	0,09328	0,00033
636,48000	0,09328	0,00040
636,52000	0,10845	0,00025
636,56000	0,09888	0,00068
636,60000	0,09511	0,00040
636,64000	0,10239	0,00025
636,68000	0,09196	0,00036
636,72000	0,09868	0,00046
636,76000	0,09247	0,00027
636,80000	0,09221	0,00025
636,84000	0,10173	0,00046
636,88000	0,09812	0,00075
636,92000	0,09914	0,00055
636,96000	0,10021	0,00033
637,00000	0,09914	0,00031
637,04000	0,09695	0,00048
637,08000	0,09705	0,00048
637,12000	0,09807	0,00048
637,16000	0,09603	0,00058
637,20000	0,10285	0,00041
637,24000	0,09817	0,00046
637,28000	0,10178	0,00047
637,32000	0,10183	0,00041
637,36000	0,10199	0,00050
637,40000	0,10015	0,00031
637,44000	0,09715	0,00056
637,48000	0,10092	0,00033
637,52000	0,09909	0,00027
637,56000	0,10382	0,00034
637,60000	0,09700	0,00051
637,64000	0,10077	0,00025
637,68000	0,10092	0,00033
637,72000	0,10071	0,00033
637,76000	0,10382	0,00034
637,80000	0,10367	0,00036
637,84000	0,09705	0,00048
637,88000	0,10010	0,00036
637,92000	0,09735	0,00040
637,96000	0,09695	0,00042
638,00000	0,09914	0,00031
638,04000	0,10071	0,00023
638,08000	0,09603	0,00027
638,12000	0,10270	0,00050
638,16000	0,10255	0,00027
638,20000	0,09802	0,00032
638,24000	0,09710	0,00038
638,28000	0,09695	0,00036
638,32000	0,10082	0,00025
638,36000	0,10754	0,00046
638,40000	0,09995	0,00031
638,44000	0,10642	0,00052
638,48000	0,09700	0,00023
638,52000	0,10102	0,00053
638,56000	0,10082	0,00034
638,60000	0,10092	0,00046
638,64000	0,10270	0,00031
638,68000	0,10204	0,00042
638,72000	0,10632	0,00033
638,76000	0,10229	0,00034
638,80000	0,09781	0,00047
638,84000	0,09812	0,00031
638,88000	0,09791	0,00044
638,92000	0,10295	0,00051
638,96000	0,10570	0,00036
639,00000	0,09980	0,00025
639,04000	0,09618	0,00041
639,08000	0,10061	0,00027
639,12000	0,10458	0,00036
639,16000	0,10474	0,00059
639,20000	0,10346	0,00056
639,24000	0,10000	0,00042
639,28000	0,10189	0,00025
639,32000	0,10275	0,00033
639,36000	0,10357	0,00042
639,40000	0,09730	0,00052
639,44000	0,09710	0,00055
639,48000	0,10382	0,00041
639,52000	0,10458	0,00036
639,56000	0,09995	0,00044
639,60000	0,10275	0,00046
639,64000	0,10280	0,00047
639,68000	0,10805	0,00023
639,72000	0,10825	0,00036
639,76000	0,09685	0,00033
639,80000	0,09893	0,00038
639,84000	0,10545	0,00041
639,88000	0,09567	0,00041
639,92000	0,10005	0,00032
639,96000	0,09980	0,00034
